##################################################
# 
# MONTHLY GSIM INDICES
# 
# created on: 2018-03-09
# created by: Lukas Gudmundsson
# 
# ------------------------------------------------
# META DATA:
# ------------------------------------------------
# gsim.no   : FR_0000167 : [-]
# river     : ARC        : [-]
# station   : BRAMANS    : [-]
# country   : FR         : [-]
# latitude  : 45.22      : [deg]
# longitude : 6.76       : [deg]
# altitude  :            : [m]
# area      : 635        : [km2]
# ------------------------------------------------
# 
##################################################
"date",	"MEAN",	"SD",	"CV",	"IQR",	"MIN",	"MAX",	"MIN7",	"MAX7",	"n.missing",	"n.available"
1970-01-31,	3.40935483870968,	0.166391816382717,	0.0488044877269772,	0.23,	3.14,	3.73,	3.27714285714286,	3.52285714285714,	0,	31
1970-02-28,	3.19714285714286,	0.282801555117223,	0.0884544631733941,	0.3225,	2.69,	3.82,	2.87142857142857,	3.52142857142857,	0,	28
1970-03-31,	3.32612903225806,	0.241697847450832,	0.0726664074384229,	0.41,	3.01,	3.77,	3.14142857142857,	3.69428571428571,	0,	31
1970-04-30,	4.78966666666667,	1.72978667876215,	0.361149699790274,	2.4525,	3.28,	9.35,	3.31428571428571,	7.22142857142857,	0,	30
1970-05-31,	11.8129032258065,	4.57884570137379,	0.387613917920774,	6.925,	5.25,	19.7,	5.84285714285714,	18.2714285714286,	0,	31
1970-06-30,	31.5033333333333,	7.63749748386813,	0.242434583129874,	8.825,	19.4,	48.7,	18.8571428571429,	37.5142857142857,	0,	30
1970-07-31,	20.2193548387097,	6.62376626775828,	0.327595332323718,	11.05,	10.8,	37.3,	13.7285714285714,	35.3571428571429,	0,	31
1970-08-31,	9.90967741935484,	2.28310531786712,	0.23039148715456,	3.75,	6.85,	16,	7.42142857142857,	13.9428571428571,	0,	31
1970-09-30,	6.94833333333333,	1.90360290580481,	0.273965397813117,	1.6125,	5.05,	15.2,	5.37142857142857,	9.07142857142857,	0,	30
1970-10-31,	7.5241935483871,	3.93179074908923,	0.522553111347336,	2.1,	5.1,	25.8,	5.45,	12.3214285714286,	0,	31
1970-11-30,	4.84566666666667,	1.00878104433137,	0.208182096236784,	1.0925,	3.77,	7,	3.94857142857143,	6.4,	0,	30
1970-12-31,	3.32064516129032,	0.343054276404099,	0.103309525631699,	0.405,	2.49,	3.8,	3.11142857142857,	3.72714285714286,	0,	31
1971-01-31,	3.23193548387097,	0.116287556079422,	0.0359807789047019,	0.19,	2.96,	3.45,	3.16857142857143,	3.54428571428571,	0,	31
1971-02-28,	3.03464285714286,	0.11471323805092,	0.0378012317927004,	0.14,	2.78,	3.14,	2.93,	3.20857142857143,	0,	28
1971-03-31,	2.92709677419355,	0.153908924332695,	0.0525807433801361,	0.205,	2.65,	3.23,	2.73142857142857,	3.10571428571429,	0,	31
1971-04-30,	5.90766666666667,	1.92854364086288,	0.32644760608185,	2.925,	3.23,	10.8,	3.13142857142857,	7.52142857142857,	0,	30
1971-05-31,	11.0596774193548,	2.09763435623874,	0.189665057731956,	3.9,	8,	13.9,	7.44285714285714,	13.2428571428571,	0,	31
1971-06-30,	10.8816666666667,	1.90156393589562,	0.174749327850723,	2.8875,	8.3,	17.2,	8.52142857142857,	13.2,	0,	30
1971-07-31,	10.0596774193548,	2.5547804652859,	0.253962464081651,	4.35,	6.6,	14.6,	7.18571428571429,	13.4428571428571,	0,	31
1971-08-31,	7.17258064516129,	1.68769264133399,	0.235297827215443,	1.35,	5.35,	15.1,	6,	8.35,	0,	31
1971-09-30,	4.878,	0.509248262739745,	0.104396937831026,	0.822499999999999,	3.99,	5.85,	4.34571428571429,	5.92142857142857,	0,	30
1971-10-31,	3.5641935483871,	0.290949871897187,	0.0816313334130942,	0.13,	3.14,	4.4,	3.27714285714286,	4.51857142857143,	0,	31
1971-11-30,	3.43,	0.397275202104154,	0.115823674082844,	0.2775,	2.83,	4.94,	2.99428571428571,	3.9,	0,	30
1971-12-31,	3.02161290322581,	0.100568277774971,	0.0332829786593796,	0.15,	2.83,	3.19,	2.97714285714286,	3.26571428571429,	0,	31
1972-01-31,	2.77129032258064,	0.133084983763105,	0.0480227505139826,	0.0549999999999997,	2.4,	2.86,	2.63,	2.97285714285714,	0,	31
1972-02-29,	2.70448275862069,	0.195623293363556,	0.0723329785482995,	0.21,	2.27,	2.95,	2.42428571428571,	2.84,	0,	29
1972-03-31,	3.17548387096774,	0.400265234643875,	0.126048580596913,	0.595,	2.78,	4.05,	2.73142857142857,	3.80428571428571,	0,	31
1972-04-30,	5.10266666666667,	0.631986104895993,	0.123854083792003,	0.682499999999999,	4.18,	7.14,	3.84285714285714,	5.89428571428571,	0,	30
1972-05-31,	9.15193548387097,	3.51853323545938,	0.38445782770872,	2.735,	5.83,	18.1,	5.42714285714286,	14.9428571428571,	0,	31
1972-06-30,	16.3866666666667,	4.07936213179203,	0.248943986887227,	4.8,	11.7,	31.9,	12.2857142857143,	20.7285714285714,	0,	30
1972-07-31,	14.2209677419355,	5.73177596377639,	0.403051048830822,	3.5,	8.14,	33.1,	9.32142857142857,	20.1857142857143,	0,	31
1972-08-31,	9.19290322580645,	6.31209431359006,	0.686626864065168,	2.895,	5.4,	32.5,	5.58285714285714,	16.6857142857143,	0,	31
1972-09-30,	4.99533333333333,	0.254215945853986,	0.0508906871454663,	0.362499999999999,	4.44,	5.36,	4.60571428571429,	5.52428571428571,	0,	30
1972-10-31,	4.34548387096774,	0.263714981367858,	0.0606871384633923,	0.215,	4.08,	5.46,	4.14285714285714,	4.62571428571429,	0,	31
1972-11-30,	4.51666666666667,	0.756641095319595,	0.167522013723896,	1.0225,	3.76,	6.99,	3.88,	5.34428571428571,	0,	30
1972-12-31,	3.5558064516129,	0.323983273164407,	0.0911138661716104,	0.635,	3.23,	4.12,	3.26857142857143,	4.29714285714286,	0,	31
1973-01-31,	2.92967741935484,	0.19327844975523,	0.065972604518962,	0.25,	2.61,	3.31,	2.75,	3.29142857142857,	0,	31
1973-02-28,	2.77607142857143,	0.0669073037985189,	0.0241014345343951,	0.0899999999999999,	2.63,	2.89,	2.73857142857143,	2.81857142857143,	0,	28
1973-03-31,	2.93774193548387,	0.22993781300487,	0.0782702558817499,	0.28,	2.72,	3.54,	2.76714285714286,	3.30714285714286,	0,	31
1973-04-30,	3.446,	0.347360490477584,	0.100801070945323,	0.319999999999999,	3.08,	4.29,	3.18142857142857,	3.73857142857143,	0,	30
1973-05-31,	10.7390322580645,	4.08130318635172,	0.380043852022779,	2.245,	5.22,	27.3,	3.93857142857143,	15.1142857142857,	0,	31
1973-06-30,	11.3793333333333,	2.21033611632404,	0.194241266300665,	2.5,	8,	16.9,	8.84142857142857,	12.6714285714286,	0,	30
1973-07-31,	9.0541935483871,	2.19503192716879,	0.242432626985294,	2.765,	6.42,	15.1,	7.45857142857143,	12.0428571428571,	0,	31
1973-08-31,	7.07741935483871,	1.00473534738237,	0.14196351763379,	0.789999999999999,	5.81,	10.5,	6.38142857142857,	8.11,	0,	31
1973-09-30,	5.14,	0.744316395460777,	0.144808637249178,	0.4275,	4.39,	8.11,	4.59,	6.69571428571429,	0,	30
1973-10-31,	5.8058064516129,	2.77936296561346,	0.478721257550935,	0.505000000000001,	4.39,	20.1,	4.50857142857143,	8.03571428571429,	0,	31
1973-11-30,	4.092,	0.339090060257621,	0.0828665836406699,	0.4225,	3.16,	4.58,	3.60285714285714,	4.71714285714286,	0,	30
1973-12-31,	3.42129032258065,	0.22109940351923,	0.0646245663689998,	0.265,	3.01,	3.84,	3.21714285714286,	3.63142857142857,	0,	31
1974-01-31,	3.06,	0.123881663964715,	0.0404842039100377,	0.21,	2.86,	3.25,	2.90857142857143,	3.22714285714286,	0,	31
1974-02-28,	2.93607142857143,	0.175928000544715,	0.0599195233578887,	0.11,	2.32,	3.13,	2.73857142857143,	3.06142857142857,	0,	28
1974-03-31,	3.46838709677419,	0.615911772762915,	0.177578729126213,	1.185,	2.85,	4.6,	2.89857142857143,	4.24857142857143,	0,	31
1974-04-30,	5.68566666666667,	0.389647792626688,	0.0685315927701275,	0.3725,	4.58,	6.28,	4.18285714285714,	5.97571428571429,	0,	30
1974-05-31,	9.17612903225806,	3.32013822746318,	0.361823402416363,	5.59,	5.43,	16.1,	5.57857142857143,	13.5285714285714,	0,	31
1974-06-30,	14.2933333333333,	3.53338104500426,	0.247204830573992,	3.425,	10.9,	24.7,	11.5,	18.8571428571429,	0,	30
1974-07-31,	11.9696774193548,	3.42370898672864,	0.286031850882843,	6.835,	7.93,	17.6,	8.49285714285714,	16.3857142857143,	0,	31
1974-08-31,	7.31129032258065,	1.08728635276234,	0.148713333049338,	0.985,	5.86,	10.1,	6.17285714285714,	8.78714285714286,	0,	31
1974-09-30,	6.92866666666667,	1.50437003273872,	0.217122587232568,	2.6475,	5.16,	9.84,	5.39428571428571,	9.17,	0,	30
1974-10-31,	4.70129032258065,	0.36894210869714,	0.0784767762427017,	0.385000000000001,	3.99,	5.82,	4.31285714285714,	5.97857142857143,	0,	31
1974-11-30,	3.67633333333333,	0.250729739558056,	0.0682010353317769,	0.23,	2.6,	3.9,	3.54285714285714,	4.22857142857143,	0,	30
1974-12-31,	3.23354838709677,	0.271729625266204,	0.0840345010300512,	0.36,	2.74,	3.9,	2.95285714285714,	3.65714285714286,	0,	31
1975-01-31,	2.93387096774194,	0.0690254744933511,	0.0235270996074094,	0.0699999999999998,	2.81,	3.11,	2.87714285714286,	3.12714285714286,	0,	31
1975-02-28,	2.88678571428571,	0.0728292559971646,	0.0252284939740271,	0.13,	2.74,	2.98,	2.83714285714286,	2.96571428571429,	0,	28
1975-03-31,	2.94645161290323,	0.056600847290288,	0.0192098343113524,	0.0500000000000003,	2.77,	3.06,	2.87571428571429,	2.98428571428571,	0,	31
1975-04-30,	6.50133333333333,	4.22177094180363,	0.649370017709746,	8.81,	2.98,	12.9,	3,	12.5714285714286,	0,	30
1975-05-31,	13.7654838709677,	3.78055625423004,	0.274640273430814,	6.235,	8.8,	20.3,	9.15714285714286,	19.2428571428571,	0,	31
1975-06-30,	16.86,	4.3358648661981,	0.257168734649946,	4.65,	11.9,	26.2,	12.8142857142857,	20.5857142857143,	0,	30
1975-07-31,	18.6903225806452,	5.40020708483849,	0.28893065176043,	7.7,	11.3,	29.5,	12.4428571428571,	25.6428571428571,	0,	31
1975-08-31,	10.2687096774194,	2.9382849214414,	0.286139643026681,	4.095,	7.26,	18,	7.48857142857143,	14.7142857142857,	0,	31
1975-09-30,	8.70233333333333,	3.44566562643496,	0.39594732751005,	1.24,	6.26,	21.5,	6.58428571428571,	13.3242857142857,	0,	30
1975-10-31,	5.19161290322581,	0.631026131388094,	0.121547223021194,	0.605,	4.6,	7.42,	4.63,	6.68285714285714,	0,	31
1975-11-30,	4.39333333333333,	0.297325240856835,	0.0676764584651369,	0.295,	3.84,	5.16,	3.98285714285714,	4.75,	0,	30
1975-12-31,	3.60129032258064,	0.254594343161612,	0.0706953120566998,	0.399999999999999,	3.16,	4.09,	3.28714285714286,	4.01857142857143,	0,	31
1976-01-31,	3.14548387096774,	0.240954196334454,	0.076603221068281,	0.22,	2.56,	3.44,	2.76571428571429,	3.44571428571429,	0,	31
1976-02-29,	3.11241379310345,	0.0751976050347061,	0.0241605422779357,	0.0800000000000001,	2.99,	3.3,	2.79428571428571,	3.14428571428571,	0,	29
1976-03-31,	3.07709677419355,	0.186515299611714,	0.0606140506128852,	0.11,	2.7,	3.65,	2.95714285714286,	3.26285714285714,	0,	31
1976-04-30,	3.99133333333333,	0.373489909694597,	0.0935752237417564,	0.53,	3.55,	4.87,	3.38857142857143,	4.46714285714286,	0,	30
1976-05-31,	8.83032258064516,	2.08471818058775,	0.236086299401696,	1.43,	4.68,	13.7,	4.54428571428571,	10.9128571428571,	0,	31
1976-06-30,	8.35833333333333,	1.20731701214556,	0.144444707335461,	1.525,	6.63,	11.9,	7.23,	9.68142857142857,	0,	30
1976-07-31,	6.74838709677419,	1.4321128837588,	0.212215580289306,	1.995,	5.1,	12.1,	5.22428571428571,	8.47142857142857,	0,	31
1976-08-31,	4.92903225806452,	0.74259614344411,	0.150657594546907,	0.465000000000001,	4.33,	8.35,	4.44142857142857,	5.32571428571429,	0,	31
1976-09-30,	4.746,	0.761222247668069,	0.160392382568072,	0.6425,	3.98,	7.35,	4.21857142857143,	5.50857142857143,	0,	30
1976-10-31,	5.49,	1.10687247082339,	0.201616114904078,	1.54,	4.32,	8.3,	4.70714285714286,	6.61285714285714,	0,	31
1976-11-30,	5.08433333333333,	0.642799284022804,	0.126427447195202,	1.13,	4.21,	6.32,	4.33,	6.90142857142857,	0,	30
1976-12-31,	3.75258064516129,	0.3836314876018,	0.102231377251404,	0.455,	3.1,	4.5,	3.2,	4.34714285714286,	0,	31
1977-01-31,	3.34709677419355,	0.190511479065997,	0.0569184257039892,	0.275,	3,	3.81,	3.12857142857143,	3.53714285714286,	0,	31
1977-02-28,	3.60285714285714,	0.252056095209529,	0.0699600581469747,	0.26,	3.07,	4.21,	3.34571428571429,	3.88142857142857,	0,	28
1977-03-31,	4.89096774193548,	0.737104039869134,	0.150707197176778,	0.85,	3.3,	6.62,	3.44285714285714,	5.87142857142857,	0,	31
1977-04-30,	7.757,	3.88458327769908,	0.500784230720521,	3.3125,	5.19,	17.7,	5.32857142857143,	13.9671428571429,	0,	30
1977-05-31,	21.2354838709677,	8.69561377504378,	0.409485078271848,	15.7,	11.7,	42.6,	12.9285714285714,	31.9571428571429,	0,	31
1977-06-30,	27.12,	6.89839561557363,	0.254365620043276,	7.85,	19,	46.4,	19.8571428571429,	36.7428571428571,	0,	30
1977-07-31,	38.4548387096774,	15.3932850881952,	0.400295141124109,	27.65,	14.8,	67.5,	19.7714285714286,	55.6428571428571,	0,	31
1977-08-31,	12.712,	2.47741160808253,	0.194887634367726,	2.525,	9.4,	21.9,	10.0228571428571,	18.2714285714286,	1,	30
1977-09-30,	8.301,	0.904125982982155,	0.10891771870644,	1.3375,	7.1,	10.4,	7.32142857142857,	11.6471428571429,	0,	30
1977-10-31,	11.6709677419355,	9.02905286832039,	0.773633606738342,	3.375,	6.65,	53,	6.84285714285714,	21.0428571428571,	0,	31
1977-11-30,	7.57833333333333,	2.09105992482172,	0.275926095204097,	1.1125,	5.9,	15.5,	6.14285714285714,	11.5,	0,	30
1977-12-31,	5.74,	0.232665711554869,	0.0405340960896984,	0.46,	5.36,	6.22,	5.50142857142857,	6.13428571428571,	0,	31
1978-01-31,	5.03483870967742,	0.235186039377935,	0.0467117325776268,	0.239999999999999,	4.35,	5.44,	4.80285714285714,	5.53571428571429,	0,	31
1978-02-28,	4.62,	0.352178405967245,	0.0762290922007024,	0.345,	3.88,	5.22,	4.15142857142857,	4.94857142857143,	0,	28
1978-03-31,	5.15064516129032,	0.298428500469498,	0.0579400232639471,	0.42,	4.8,	5.82,	4.83142857142857,	5.43,	0,	31
1978-04-30,	6.91666666666667,	0.71303785909708,	0.103089810953795,	0.76,	5.66,	8.3,	5.49285714285714,	7.95,	0,	30
1978-05-31,	15.8445161290323,	5.37847180198346,	0.339453206281785,	8.65,	8.43,	24.9,	8.08571428571429,	21.8285714285714,	0,	31
1978-06-30,	33.0866666666667,	19.629652680774,	0.593279851323009,	18.925,	15.1,	72.4,	17.4714285714286,	66,	0,	30
1978-07-31,	28.0161290322581,	16.0329264696996,	0.572274865354852,	9,	14.9,	91,	16.7714285714286,	51.6571428571429,	0,	31
1978-08-31,	15.2309677419355,	8.06977255145757,	0.529826645830195,	6.6,	9.25,	39.7,	10.0228571428571,	27.4285714285714,	0,	31
1978-09-30,	7.44033333333333,	0.644111166959787,	0.0865702029872927,	1.0725,	6.37,	8.66,	6.65142857142857,	9.73142857142857,	0,	30
1978-10-31,	5.94064516129032,	0.39698812311261,	0.0668257592120489,	0.734999999999999,	5.4,	6.63,	5.43428571428571,	6.59285714285714,	0,	31
1978-11-30,	4.84633333333333,	0.237740561774056,	0.0490557593591146,	0.21,	4.2,	5.4,	4.62285714285714,	5.41714285714286,	0,	30
1978-12-31,	4.42483870967742,	0.130047964683341,	0.0293904418253523,	0.155,	4.2,	4.85,	4.28857142857143,	4.57714285714286,	0,	31
1979-01-31,	3.74677419354839,	0.166100112317325,	0.044331497906475,	0.16,	3.42,	4.22,	3.61285714285714,	4.40714285714286,	0,	31
1979-02-28,	3.82285714285714,	0.125310197121565,	0.0327791995459998,	0.17,	3.51,	4,	3.67,	3.94142857142857,	0,	28
1979-03-31,	3.86741935483871,	0.174870766414048,	0.0452163963536199,	0.17,	3.59,	4.34,	3.61285714285714,	4.12857142857143,	0,	31
1979-04-30,	4.30833333333333,	0.54109775605633,	0.125593289606885,	0.95,	3.59,	5.33,	3.67,	4.79,	0,	30
1979-05-31,	11.5932258064516,	5.03444031122744,	0.434257073508029,	8.435,	4.82,	21,	4.77714285714286,	15.9857142857143,	0,	31
1979-06-30,	19.62,	4.303839504763,	0.219359811659684,	7.675,	12.5,	28.7,	13.9428571428571,	23.2,	0,	30
1979-07-31,	11.9241935483871,	2.28240337392196,	0.191409453784879,	1.85,	8.7,	18.1,	9.09285714285714,	20.6714285714286,	0,	31
1979-08-31,	8.44516129032258,	1.67447279457892,	0.198275999358085,	2.1,	6.32,	13.9,	6.97142857142857,	11.2357142857143,	0,	31
1979-09-30,	5.84766666666667,	0.24340520116469,	0.0416243289912825,	0.3325,	5.53,	6.47,	5.68,	6.72571428571429,	0,	30
1979-10-31,	6.58032258064516,	1.94725359394707,	0.29592068931006,	1.83,	4.94,	12.4,	5.17142857142857,	9.32142857142857,	0,	31
1979-11-30,	5.43333333333333,	0.571985853052288,	0.105273469886924,	0.735,	4.7,	6.8,	4.77714285714286,	6.22714285714286,	0,	30
1979-12-31,	4.64806451612903,	0.322763270884805,	0.0694403594796929,	0.33,	4.28,	6.02,	4.38285714285714,	4.99285714285714,	0,	31
1980-01-31,	3.95516129032258,	0.108531745516905,	0.0274405359352749,	0.0899999999999999,	3.76,	4.22,	3.90285714285714,	4.34571428571429,	0,	31
1980-02-29,	4.25344827586207,	0.34462480490765,	0.0810224510930023,	0.23,	3.96,	5.42,	3.86571428571429,	4.74714285714286,	0,	29
1980-03-31,	4.31903225806452,	0.410100433542075,	0.0949519265053725,	0.23,	4,	5.53,	4.05285714285714,	4.82428571428571,	0,	31
1980-04-30,	6.67466666666667,	1.07237002534777,	0.160662708551903,	1.4675,	5.39,	9.12,	5.04571428571429,	8.04714285714286,	0,	30
1980-05-31,	12.69,	2.14566539795934,	0.169083167687891,	2.45,	7.91,	16,	7.31285714285714,	15.4142857142857,	0,	31
1980-06-30,	21.2133333333333,	9.94334757109195,	0.46873102943551,	6.225,	12.3,	58.4,	13.7142857142857,	33.4571428571429,	0,	30
1980-07-31,	18.1677419354839,	4.52595382925148,	0.24912032795951,	6.5,	13,	27.5,	13.6857142857143,	24.1857142857143,	0,	31
1980-08-31,	17.2296774193548,	7.84583264494426,	0.45536735563782,	10.35,	9.09,	35,	10.4214285714286,	29.7428571428571,	0,	31
1980-09-30,	8.55366666666667,	5.75122624605686,	0.672369694796407,	1.595,	6,	36.2,	6.5,	12.8357142857143,	0,	30
1980-10-31,	5.93548387096774,	0.721959549696414,	0.121634489351026,	0.455,	5.16,	9.09,	5.37428571428571,	6.59714285714286,	0,	31
1980-11-30,	5.167,	0.21598451413198,	0.0418007575250591,	0.305,	4.82,	5.67,	4.90285714285714,	6.01571428571429,	0,	30
1980-12-31,	4.23903225806452,	0.223074798198716,	0.0526239916609101,	0.319999999999999,	3.83,	4.58,	4,	4.85142857142857,	0,	31
1981-01-31,	3.80064516129032,	0.209060365825615,	0.0550065467712956,	0.385,	3.43,	4.11,	3.49857142857143,	3.98428571428571,	0,	31
1981-02-28,	3.64285714285714,	0.101975201882329,	0.0279931926735806,	0.2,	3.48,	3.79,	3.53142857142857,	3.76142857142857,	0,	28
1981-03-31,	5.13451612903226,	2.55651564792092,	0.497907803515414,	2.16,	3.43,	16.2,	3.47,	8.69142857142857,	0,	31
1981-04-30,	13.052,	3.22665023269302,	0.247215004037161,	3.925,	9.1,	24,	9.79428571428571,	16.8142857142857,	0,	30
1981-05-31,	13.3451612903226,	3.05805588674432,	0.229150912470568,	5.4,	8.8,	19,	9.23857142857143,	17.4,	0,	31
1981-06-30,	28.5633333333333,	14.6374692398354,	0.512456619436411,	19.8,	13.6,	60.1,	15.0428571428571,	52.1428571428571,	0,	30
1981-07-31,	18.958064516129,	7.26923995080404,	0.383437873872597,	10.2,	11.5,	46.3,	12.1714285714286,	24.4428571428571,	0,	31
1981-08-31,	10.3548387096774,	4.01104796860516,	0.387359772669035,	5.795,	6.64,	20.9,	6.92142857142857,	16.7857142857143,	0,	31
1981-09-30,	7.99033333333333,	3.21431655559004,	0.402275652528894,	2.46,	5.79,	19.4,	6.07571428571429,	12.5742857142857,	0,	30
1981-10-31,	10.5993548387097,	5.915523045617,	0.558102180333943,	2.88,	6.61,	30,	7.15571428571429,	19.8714285714286,	0,	31
1981-11-30,	5.81566666666667,	0.639216564312874,	0.10991286140532,	0.9475,	4.96,	7.1,	5.18857142857143,	7.23857142857143,	0,	30
1981-12-31,	4.61774193548387,	0.210455215781083,	0.0455753523521731,	0.34,	4.19,	5.1,	4.39714285714286,	5.19,	0,	31
1982-01-31,	4.22161290322581,	0.220908680592887,	0.0523280285655957,	0.165,	3.79,	4.86,	4.05,	4.52285714285714,	0,	31
1982-02-28,	4.04285714285714,	0.0828589673216391,	0.0204951509276139,	0.11,	3.86,	4.21,	3.98571428571429,	4.12857142857143,	0,	28
1982-03-31,	3.91161290322581,	0.110908273637679,	0.0283535913142673,	0.155,	3.7,	4.16,	3.77428571428571,	4.04571428571429,	0,	31
1982-04-30,	7.54733333333333,	1.69589551836055,	0.224701287654874,	1.62,	3.9,	10,	3.88428571428571,	9.17571428571429,	0,	30
1982-05-31,	13.7832258064516,	3.82452732338414,	0.277476940238036,	7.475,	8.64,	20.2,	9.08714285714286,	17.9428571428571,	0,	31
1982-06-30,	19.2766666666667,	4.61726022160577,	0.239525863130163,	7.45,	12.7,	29.9,	15.7857142857143,	25.2,	0,	30
1982-07-31,	18.9938709677419,	10.4468935342584,	0.550013925650055,	10.2,	8.23,	49.5,	9.41571428571429,	35.3714285714286,	0,	31
1982-08-31,	8.51193548387097,	2.55523700056027,	0.300194592099778,	1.13,	6.38,	21.1,	6.92,	11.5371428571429,	0,	31
1982-09-30,	7.54033333333333,	1.81272224955259,	0.240403463536438,	1.0125,	6.21,	14.9,	6.32428571428571,	9.06571428571429,	0,	30
1982-10-31,	6.63774193548387,	1.1060702499613,	0.166633511924967,	0.805000000000001,	5.67,	11.4,	5.94857142857143,	7.97714285714286,	0,	31
1982-11-30,	5.17866666666667,	0.300754606503929,	0.0580756835422109,	0.4325,	4.79,	5.72,	4.84714285714286,	6.12285714285714,	0,	30
1982-12-31,	4.54096774193548,	0.299147174912391,	0.0658774058555382,	0.49,	4.01,	5.05,	4.12714285714286,	4.85,	0,	31
1983-01-31,	3.90903225806452,	0.15584938966215,	0.0398690467034712,	0.215,	3.7,	4.23,	3.75571428571429,	4.19428571428571,	0,	31
1983-02-28,	3.60571428571429,	0.0960489293297787,	0.0266379756461351,	0.105,	3.47,	3.79,	3.52142857142857,	3.76714285714286,	0,	28
1983-03-31,	4.22774193548387,	0.508964371231224,	0.120386811446421,	0.774999999999999,	3.48,	5.12,	3.53142857142857,	4.91142857142857,	0,	31
1983-04-30,	6.35566666666667,	1.53791099543669,	0.24197477245031,	2.58,	4.15,	8.69,	4.2,	8.01428571428571,	0,	30
1983-05-31,	13.8325806451613,	3.8103035467374,	0.275458617916698,	4.6,	9.36,	25.3,	8.20714285714286,	19,	0,	31
1983-06-30,	23.6466666666667,	9.68015151396575,	0.409366429967539,	7.95,	14.7,	48.8,	13.1,	39.0857142857143,	0,	30
1983-07-31,	28.7161290322581,	7.36270316184636,	0.256396088538797,	13.15,	18.3,	42.9,	18.9714285714286,	36.2714285714286,	0,	31
1983-08-31,	9.60774193548387,	3.43801271054216,	0.357837745188044,	1.855,	7.16,	21.3,	7.47714285714286,	21.5142857142857,	0,	31
1983-09-30,	6.448,	0.828935337106247,	0.128556969154195,	1.375,	5.19,	7.81,	5.53428571428571,	7.44428571428571,	0,	30
1983-10-31,	6.47,	1.65630713737922,	0.255998011959693,	3.08,	4.26,	8.91,	4.73285714285714,	8.53285714285714,	0,	31
1983-11-30,	4.302,	1.36068289143153,	0.316290769742337,	0.33,	3.68,	11.1,	3.70714285714286,	5.46571428571429,	0,	30
1983-12-31,	3.77387096774194,	0.1725046360605,	0.0457102634231601,	0.14,	3.62,	4.36,	3.64142857142857,	5.60571428571429,	0,	31
1984-01-31,	3.47838709677419,	0.232638442999626,	0.0668811252247836,	0.185,	3.04,	4.18,	3.22,	3.86428571428571,	0,	31
1984-02-29,	3.29862068965517,	0.137807426140638,	0.0417772878745401,	0.13,	2.93,	3.52,	3.14,	3.47714285714286,	0,	29
1984-03-31,	3.31322580645161,	0.107125692429476,	0.0323327472039115,	0.165,	3.17,	3.58,	3.20571428571429,	3.46714285714286,	0,	31
1984-04-30,	5.65,	2.71229893581835,	0.480052908994399,	4.9825,	3.32,	10.9,	3.36714285714286,	9.88428571428571,	0,	30
1984-05-31,	9.45193548387097,	1.48780244959882,	0.157407173603507,	1.385,	7.52,	13,	8.15142857142857,	11.32,	0,	31
1984-06-30,	19.8773333333333,	7.48770713642832,	0.376695757467215,	9.5,	9.72,	39.8,	9.15714285714286,	29.9428571428571,	0,	30
1984-07-31,	16.9890322580645,	7.24639696899487,	0.426533828350057,	7.4,	8.63,	38.3,	11.5085714285714,	27.8285714285714,	0,	31
1984-08-31,	7.67903225806452,	1.47553686238537,	0.192151408250143,	1.45,	6.18,	12.2,	6.43857142857143,	10.8942857142857,	0,	31
1984-09-30,	5.80566666666667,	0.567022977904127,	0.097667160458884,	0.6575,	4.67,	6.98,	5.02285714285714,	6.71714285714286,	0,	30
1984-10-31,	5.36290322580645,	0.665267833524649,	0.124049941890311,	0.984999999999999,	4.26,	6.81,	4.46,	6.16714285714286,	0,	31
1984-11-30,	4.279,	0.453669711239963,	0.106022367665334,	0.26,	3.93,	5.74,	3.99857142857143,	4.88428571428571,	0,	30
1984-12-31,	3.64290322580645,	0.208793255772101,	0.0573150706538133,	0.135,	3.15,	4,	3.39142857142857,	4.40285714285714,	0,	31
1985-01-31,	3.1125,	0.149767363460451,	0.0481180284210283,	0.2275,	2.9,	3.4,	3.05,	3.30285714285714,	11,	20
1985-02-28,	3.22821428571429,	0.0723701171923458,	0.0224180028917544,	0.0475000000000003,	3.08,	3.36,	3.13857142857143,	3.29142857142857,	0,	28
1985-03-31,	3.13967741935484,	0.0575316649604223,	0.0183240687739966,	0.085,	3.04,	3.29,	3.07428571428571,	3.23142857142857,	0,	31
1985-04-30,	4.72766666666667,	0.926865996092555,	0.196051469243296,	1.315,	3.27,	6.61,	3.15285714285714,	6.00714285714286,	0,	30
1985-05-31,	9.28354838709677,	3.72679714892658,	0.401441021636346,	4.875,	5.07,	16.5,	5.32571428571429,	14.9285714285714,	0,	31
1985-06-30,	15.3966666666667,	3.17929544714389,	0.206492451643899,	4.4,	11.7,	22.7,	13.0428571428571,	20.1,	0,	30
1985-07-31,	14.9483870967742,	4.74826852426173,	0.317644204255748,	6.7,	7.67,	26.4,	9.47142857142857,	20.8714285714286,	0,	31
1985-08-31,	7.10903225806452,	2.14702950583468,	0.302014314733076,	0.825,	5.65,	17.9,	6.25714285714286,	9.27285714285714,	0,	31
1985-09-30,	4.695,	0.463232644314518,	0.0986650999604937,	0.685,	4.14,	5.73,	4.18714285714286,	6.03857142857143,	0,	30
1985-10-31,	3.73193548387097,	0.181225814107496,	0.0485608111101424,	0.23,	3.51,	4.14,	3.57,	4.17,	0,	31
1985-11-30,	3.47833333333333,	0.304167414579462,	0.0874463098934724,	0.3025,	3.02,	4.53,	3.20714285714286,	3.88857142857143,	0,	30
1985-12-31,	3.16645161290323,	0.0769652903195881,	0.0243064792166588,	0.0899999999999999,	2.95,	3.3,	3.08428571428571,	3.27285714285714,	0,	31
1986-01-31,	2.98677419354839,	0.137389642908389,	0.0459993404272606,	0.234999999999999,	2.69,	3.19,	2.80857142857143,	3.16285714285714,	0,	31
1986-02-28,	2.87464285714286,	0.143977419599385,	0.0500853242487611,	0.165,	2.61,	3.13,	2.73285714285714,	3.03714285714286,	0,	28
1986-03-31,	3.18741935483871,	0.207283505404804,	0.0650317646751231,	0.21,	2.99,	3.69,	2.97714285714286,	3.51571428571429,	0,	31
1986-04-30,	4.162,	0.705649126446829,	0.169545681510531,	1.0225,	3.56,	5.79,	3.49857142857143,	5.08571428571429,	0,	30
1986-05-31,	21.8358064516129,	10.2959654798028,	0.471517527993213,	19.4,	6.62,	38.2,	5.39142857142857,	35,	0,	31
1986-06-30,	25.2733333333333,	12.3800989727349,	0.489848284334012,	20.575,	12.3,	49.3,	14,	43.9142857142857,	0,	30
1986-07-31,	16.1029032258065,	9.651127807515,	0.59934085625306,	5.86,	8.86,	42.7,	9.45,	43.9142857142857,	0,	31
1986-08-31,	7.76838709677419,	1.65427546431299,	0.21294966943652,	2.095,	5.42,	11.3,	5.86285714285714,	10.7571428571429,	0,	31
1986-09-30,	5.06666666666667,	1.10914485025653,	0.218910167813788,	0.45,	4.42,	10.7,	4.61428571428571,	5.90142857142857,	0,	30
1986-10-31,	4.13741935483871,	0.418775737453318,	0.101216652588904,	0.255,	3.74,	6.2,	3.96857142857143,	4.65714285714286,	0,	31
1986-11-30,	3.53766666666667,	0.117962101843195,	0.0333446061933087,	0.105,	3.31,	3.77,	3.40285714285714,	3.89142857142857,	0,	30
1986-12-31,	3.21838709677419,	0.108814728604589,	0.0338103296255613,	0.0899999999999999,	2.95,	3.57,	3.09,	3.37142857142857,	0,	31
1987-01-31,	3.10096774193548,	0.12185660531159,	0.0392963150385861,	0.13,	2.85,	3.43,	3.02571428571429,	3.25571428571429,	0,	31
1987-02-28,	3.10142857142857,	0.119898546178264,	0.0386591351104491,	0.1025,	2.93,	3.53,	3.00571428571429,	3.18857142857143,	0,	28
1987-03-31,	3.17645161290323,	0.144257833689007,	0.0454147744933402,	0.13,	3.04,	3.54,	3.06,	3.37857142857143,	0,	31
1987-04-30,	6.29766666666667,	3.48201158996401,	0.552905032016727,	5.935,	3.13,	12.5,	3.19428571428571,	11.5857142857143,	0,	30
1987-05-31,	8.96774193548387,	1.9413375280588,	0.216480084064111,	2.73,	6.7,	14.1,	7.03857142857143,	12.4714285714286,	0,	31
1987-06-30,	12.53,	2.62721302445425,	0.209673824776876,	2.85,	9.3,	20.5,	9.90142857142857,	13.7857142857143,	0,	30
1987-07-31,	21.278064516129,	11.2266906430924,	0.527618037560815,	13.65,	7.94,	55.1,	9.83428571428571,	36.8428571428571,	0,	31
1987-08-31,	9.95193548387097,	4.46149781975728,	0.44830453603603,	3.285,	6.5,	26.1,	6.8,	14.1528571428571,	0,	31
1987-09-30,	6.52766666666667,	0.966984945620908,	0.148136385480403,	1.07,	4.92,	9.32,	5.69285714285714,	8.98714285714286,	0,	30
1987-10-31,	6.85903225806452,	1.70091613518266,	0.247981941356641,	1.745,	4.38,	12.2,	4.86571428571429,	9.00142857142857,	0,	31
1987-11-30,	5.49266666666667,	0.538106087049329,	0.0979680944986034,	0.3975,	4.62,	6.65,	4.83571428571429,	7.22,	0,	30
1987-12-31,	4.76516129032258,	0.817226492341595,	0.171500279329742,	0.57,	3.89,	7.84,	4.07428571428571,	5.98,	0,	31
1988-01-31,	3.72612903225806,	0.217281344794483,	0.0583128879631977,	0.26,	3.27,	4.2,	3.51428571428571,	4.54428571428571,	0,	31
1988-02-29,	3.32586206896552,	0.114440166568115,	0.0344091739810818,	0.15,	3.08,	3.52,	3.2,	3.49714285714286,	0,	29
1988-03-31,	3.57903225806452,	0.48139626669865,	0.134504590064517,	0.715,	3.08,	4.87,	3.15714285714286,	4.30285714285714,	0,	31
1988-04-30,	8.222,	4.01766307095607,	0.488647904519103,	8.5825,	3.72,	14.2,	3.79714285714286,	13.2571428571429,	0,	30
1988-05-31,	17.6612903225806,	1.95596138669365,	0.110748498607312,	2.3,	13.8,	21.3,	13.3428571428571,	19.5142857142857,	0,	31
1988-06-30,	17.15,	2.04041070916347,	0.118974385373963,	1.975,	14.2,	24,	15.1857142857143,	19.7571428571429,	0,	30
1988-07-31,	18.7193548387097,	3.72114851041438,	0.198786151685069,	5.95,	12.2,	26.7,	15.5714285714286,	22.0142857142857,	0,	31
1988-08-31,	9.30096774193548,	2.36538982670047,	0.254316528379685,	3.235,	6.16,	14.5,	6.43428571428571,	15.0428571428571,	0,	31
1988-09-30,	5.58166666666667,	0.933643523988175,	0.167269666883519,	0.79,	4.5,	9.47,	4.98142857142857,	6.91,	0,	30
1988-10-31,	6.85709677419355,	2.59215250779269,	0.378024781208888,	2.685,	4.5,	14.1,	4.56285714285714,	9.51571428571429,	0,	31
1988-11-30,	4.615,	0.28523130359714,	0.061805266218232,	0.350000000000001,	4.19,	5.21,	4.28,	5.33428571428571,	0,	30
1988-12-31,	4.47193548387097,	0.599863425316345,	0.13413955265676,	0.279999999999999,	4.07,	7.09,	4.14714285714286,	5.19857142857143,	0,	31
