##################################################
# 
# MONTHLY GSIM INDICES
# 
# created on: 2018-03-09
# created by: Lukas Gudmundsson
# 
# ------------------------------------------------
# META DATA:
# ------------------------------------------------
# gsim.no   : RU_0000360      : [-]
# river     : BOLSHOI KARAMAN : [-]
# station   : SOVETSKOJE      : [-]
# country   : RU              : [-]
# latitude  : 51.45           : [deg]
# longitude : 46.75           : [deg]
# altitude  : 82              : [m]
# area      : 3470            : [km2]
# ------------------------------------------------
# 
##################################################
"date",	"MEAN",	"SD",	"CV",	"IQR",	"MIN",	"MAX",	"MIN7",	"MAX7",	"n.missing",	"n.available"
1933-01-31,	0.00365,	0.00108942283125661,	0.298472008563454,	0.001,	0.002,	0.006,	0.00257142857142857,	0.00442857142857143,	11,	20
1933-02-28,	0.0258571428571429,	0.0223784193095413,	0.865463730203255,	0.034,	0.006,	0.072,	0.00485714285714286,	0.0607142857142857,	0,	28
1933-03-31,	0.136774193548387,	0.145333572555786,	1.06258036538429,	0.1405,	0.026,	0.52,	0.0282857142857143,	0.357142857142857,	0,	31
1933-04-30,	0.922333333333333,	1.65355596619326,	1.792796493885,	0.3375,	0.075,	5.44,	0.0875714285714286,	3.46428571428571,	0,	30
1933-05-31,	0.0696111111111111,	0.00206194907476593,	0.0296209763334292,	0,	0.065,	0.075,	0.0684285714285714,	0.0844285714285714,	13,	18
1933-06-30,	0.0580769230769231,	0.00413688846282398,	0.0712311920751149,	0.00825,	0.053,	0.065,	0.0534285714285714,	0.0628571428571429,	4,	26
1933-07-31,	0.06785,	0.00804117692354729,	0.118514029823836,	0.00700000000000001,	0.062,	0.097,	0.0637142857142857,	0.0751428571428572,	11,	20
1933-08-31,	0.085,	0.0211707345172528,	0.249067464908857,	0.01,	0.059,	0.16,	0.0854285714285714,	0.102,	10,	21
1933-09-30,	0.08785,	0.00366024157960272,	0.0416646736437418,	0.00699999999999999,	0.082,	0.092,	0.0828571428571429,	0.092,	10,	20
1933-10-31,	0.0946451612903226,	0.00369277120057349,	0.0390170099583429,	0.005,	0.085,	0.1,	0.09,	0.0978571428571429,	0,	31
1933-11-30,	0.0753666666666667,	0.0272098908656308,	0.361033492246318,	0.045,	0.029,	0.11,	0.0368571428571429,	0.104428571428571,	0,	30
1933-12-31,	NA,	NA,	NA,	NA,	NA,	NA,	NA,	NA,	31,	0
1934-01-31,	NA,	NA,	NA,	NA,	NA,	NA,	NA,	NA,	31,	0
1934-02-28,	NA,	NA,	NA,	NA,	NA,	NA,	NA,	NA,	28,	0
1934-03-31,	NA,	NA,	NA,	NA,	NA,	NA,	NA,	NA,	31,	0
1934-04-30,	NA,	NA,	NA,	NA,	NA,	NA,	NA,	NA,	30,	0
1934-05-31,	NA,	NA,	NA,	NA,	NA,	NA,	NA,	NA,	31,	0
1934-06-30,	NA,	NA,	NA,	NA,	NA,	NA,	NA,	NA,	30,	0
1934-07-31,	NA,	NA,	NA,	NA,	NA,	NA,	NA,	NA,	31,	0
1934-08-31,	NA,	NA,	NA,	NA,	NA,	NA,	NA,	NA,	31,	0
1934-09-30,	NA,	NA,	NA,	NA,	NA,	NA,	NA,	NA,	30,	0
1934-10-31,	NA,	NA,	NA,	NA,	NA,	NA,	NA,	NA,	31,	0
1934-11-30,	NA,	NA,	NA,	NA,	NA,	NA,	NA,	NA,	30,	0
1934-12-31,	NA,	NA,	NA,	NA,	NA,	NA,	NA,	NA,	31,	0
1935-01-31,	NA,	NA,	NA,	NA,	NA,	NA,	NA,	NA,	31,	0
1935-02-28,	NA,	NA,	NA,	NA,	NA,	NA,	NA,	NA,	28,	0
1935-03-31,	NA,	NA,	NA,	NA,	NA,	NA,	NA,	NA,	31,	0
1935-04-30,	NA,	NA,	NA,	NA,	NA,	NA,	NA,	NA,	30,	0
1935-05-31,	NA,	NA,	NA,	NA,	NA,	NA,	NA,	NA,	31,	0
1935-06-30,	NA,	NA,	NA,	NA,	NA,	NA,	NA,	NA,	30,	0
1935-07-31,	NA,	NA,	NA,	NA,	NA,	NA,	NA,	NA,	31,	0
1935-08-31,	NA,	NA,	NA,	NA,	NA,	NA,	NA,	NA,	31,	0
1935-09-30,	NA,	NA,	NA,	NA,	NA,	NA,	NA,	NA,	30,	0
1935-10-31,	NA,	NA,	NA,	NA,	NA,	NA,	NA,	NA,	31,	0
1935-11-30,	NA,	NA,	NA,	NA,	NA,	NA,	NA,	NA,	30,	0
1935-12-31,	NA,	NA,	NA,	NA,	NA,	NA,	NA,	NA,	31,	0
1936-01-31,	0.117774193548387,	0.0692987299919315,	0.588403349698679,	0.1365,	0.024,	0.21,	0.0321428571428571,	0.207142857142857,	0,	31
1936-02-29,	0.0441578947368421,	0.00922715291285416,	0.208958170851286,	0.016,	0.03,	0.056,	0.0321428571428571,	0.0542857142857143,	10,	19
1936-03-31,	0.0488387096774194,	0.0434918358424456,	0.890519756351264,	0.014,	0.022,	0.15,	0.023,	0.123428571428571,	0,	31
1936-04-30,	15.495,	37.3789032098644,	2.41232031041397,	5.1475,	0.22,	153,	0.134857142857143,	61.2071428571429,	0,	30
1936-05-31,	0.263225806451613,	0.189743460085351,	0.720839125324251,	0.085,	0.15,	0.98,	0.178571428571429,	2.24857142857143,	0,	31
1936-06-30,	0.186,	0.0736534288828897,	0.39598617678973,	0.05,	0.05,	0.45,	0.12,	0.252857142857143,	0,	30
1936-07-31,	0.0546451612903226,	0.0239409668241096,	0.438116866320779,	0.034,	0.03,	0.1,	0.0325714285714286,	0.0985714285714286,	0,	31
1936-08-31,	0.0389677419354839,	0.00811370803421692,	0.208216017434375,	0.017,	0.03,	0.05,	0.0317142857142857,	0.0771428571428572,	0,	31
1936-09-30,	0.095,	0.0661633297748575,	0.696456102893237,	0.03,	0.05,	0.38,	0.042,	0.165714285714286,	0,	30
1936-10-31,	0.200322580645161,	0.0893861984487442,	0.446211296604037,	0.11,	0.07,	0.38,	0.0742857142857143,	0.328571428571429,	0,	31
1936-11-30,	0.093,	0.0292610132523077,	0.314634551100082,	0.03,	0.05,	0.15,	0.0585714285714286,	0.164285714285714,	0,	30
1936-12-31,	0.0287741935483871,	0.00668186439760319,	0.232217260454819,	0.013,	0.021,	0.05,	0.0228571428571429,	0.0585714285714286,	0,	31
1937-01-31,	0.045,	0.0191537637728637,	0.425639194952527,	0.033,	0.016,	0.068,	0.0165714285714286,	0.057,	0,	31
1937-02-28,	0.0767142857142857,	0.0280064240552018,	0.365074429024977,	0.0145,	0.022,	0.13,	0.0515714285714286,	0.109142857142857,	0,	28
1937-03-31,	13.8223870967742,	23.7167259708944,	1.71581983667852,	25.1825,	0.021,	104,	0.0214285714285714,	49.3571428571429,	0,	31
1937-04-30,	0.8775,	1.27918508187213,	1.45776077706226,	0.405,	0.24,	5.39,	0.257142857142857,	37.07,	10,	20
1937-05-31,	0.205483870967742,	0.0449324463075715,	0.218666536190693,	0.03,	0.14,	0.35,	0.168571428571429,	0.251428571428571,	0,	31
1937-06-30,	0.148066666666667,	0.118191525845169,	0.798231826959717,	0.06025,	0.072,	0.64,	0.087,	0.298571428571429,	0,	30
1937-07-31,	0.0604516129032258,	0.00713600593085245,	0.118044922015169,	0.008,	0.042,	0.073,	0.0544285714285714,	0.0827142857142857,	0,	31
1937-08-31,	0.0843548387096774,	0.0528296308190122,	0.626278606267448,	0.0515,	0.042,	0.21,	0.0472857142857143,	0.160571428571429,	0,	31
1937-09-30,	0.0643684210526316,	0.00505756338254115,	0.078572121233264,	0.00750000000000001,	0.056,	0.069,	0.059,	0.0872857142857143,	11,	19
1937-10-31,	0.0566451612903226,	0.00693564891026439,	0.122440271194872,	0.01,	0.049,	0.073,	0.0494285714285714,	0.0622857142857143,	0,	31
1937-11-30,	0.1033,	0.0158335087709579,	0.153276948411983,	0.032,	0.083,	0.13,	0.0644285714285714,	0.118571428571429,	0,	30
1937-12-31,	0.0835161290322581,	0.0273445557868983,	0.327416465582792,	0.0535,	0.044,	0.13,	0.0518571428571429,	0.116714285714286,	0,	31
1938-01-31,	0.0655483870967742,	0.0105098008534175,	0.160336528767688,	0.0155,	0.042,	0.082,	0.0518571428571429,	0.0765714285714286,	0,	31
1938-02-28,	0.0646785714285714,	0.0468552171658757,	0.724431850162629,	0.01575,	0.022,	0.27,	0.0475714285714286,	0.104285714285714,	0,	28
1938-03-31,	2.29635483870968,	5.07988832914259,	2.21215303641705,	0.153,	0.057,	18.5,	0.0548571428571429,	9.86285714285714,	0,	31
1938-04-30,	1.21933333333333,	1.64978772580896,	1.35302437873889,	0.935,	0.18,	8.19,	0.22,	11.1885714285714,	0,	30
1938-05-31,	0.131451612903226,	0.0325605474049781,	0.247699869829281,	0.05,	0.067,	0.18,	0.102285714285714,	0.204285714285714,	0,	31
1938-06-30,	0.07645,	0.00897056590364169,	0.117338991545346,	0.012,	0.055,	0.09,	0.0704285714285714,	0.0947142857142857,	10,	20
1938-07-31,	0.04348,	0.0138657852283958,	0.318900304240935,	0.007,	0.03,	0.079,	0.0308571428571429,	0.0837142857142857,	6,	25
1938-08-31,	0.0381,	0.00814926538503867,	0.213891479922275,	0.007,	0.03,	0.067,	0.0325714285714286,	0.0454285714285714,	11,	20
1938-09-30,	0.0413846153846154,	0.0129777916812945,	0.313589761815667,	0.013,	0.03,	0.067,	0.0331428571428571,	0.0502857142857143,	17,	13
1938-10-31,	0.0854285714285714,	0.0113162335985584,	0.132464272892825,	0.011,	0.067,	0.1,	0.0532857142857143,	0.0942857142857143,	10,	21
1938-11-30,	0.0880333333333333,	0.00688067425191162,	0.0781598741224342,	0.011,	0.079,	0.1,	0.0821428571428571,	0.0957142857142857,	0,	30
1938-12-31,	0.0678064516129032,	0.0414474923687298,	0.611261780889925,	0.038,	0.014,	0.22,	0.0204285714285714,	0.108857142857143,	0,	31
1939-01-31,	0.0175483870967742,	0.0069705987771373,	0.39722162149128,	0.009,	0.003,	0.031,	0.0115714285714286,	0.0247142857142857,	0,	31
1939-02-28,	0.0804285714285714,	0.0563871725440568,	0.701083850458965,	0.05775,	0.003,	0.22,	0.0161428571428571,	0.148857142857143,	0,	28
1939-03-31,	3.67877419354839,	5.31603958293313,	1.44505732160894,	4.033,	0.022,	17.4,	0.0375714285714286,	12.6814285714286,	0,	31
1939-04-30,	1.37433333333333,	1.7194359206023,	1.25110544792794,	1.0575,	0.2,	6.77,	0.26,	12.6385714285714,	0,	30
1939-05-31,	0.179096774193548,	0.125314099988445,	0.699700486246721,	0.085,	0.058,	0.75,	0.066,	0.235714285714286,	0,	31
1939-06-30,	0.0841333333333333,	0.0356319629210797,	0.423517784323451,	0.032,	0.05,	0.2,	0.0577142857142857,	0.253571428571429,	0,	30
1939-07-31,	0.0387894736842105,	0.0103041466699815,	0.265642858520555,	0.014,	0.022,	0.058,	0.031,	0.0812857142857143,	12,	19
1939-08-31,	0.0495769230769231,	0.00675380234785163,	0.136228751779785,	0,	0.031,	0.058,	0.043,	0.0557142857142857,	5,	26
1939-09-30,	0.0475,	0.0105430153378335,	0.221958217638601,	0.01,	0.04,	0.077,	0.0414285714285714,	0.0621428571428571,	0,	30
1939-10-31,	0.0733214285714286,	0.00883198552161224,	0.120455720703918,	0.012,	0.058,	0.1,	0.0637142857142857,	0.0807142857142857,	3,	28
1939-11-30,	0.0860526315789474,	0.0163213346547481,	0.189666885896155,	0.022,	0.05,	0.1,	0.0742857142857143,	0.0928571428571429,	11,	19
1939-12-31,	0.0763333333333333,	0.00107308673997732,	0.0140579048905326,	0.00125,	0.075,	0.078,	0.0755714285714286,	0.0782857142857143,	19,	12
1940-01-31,	NA,	NA,	NA,	NA,	NA,	NA,	NA,	NA,	31,	0
1940-02-29,	0.079,	0,	0,	0,	0.079,	0.079,	NA,	NA,	27,	2
1940-03-31,	0.166588235294118,	0.205700953699639,	1.23478679833823,	0.09,	0.072,	0.93,	0.08,	0.291428571428571,	14,	17
1940-04-30,	6.58766666666667,	9.06201876090469,	1.37560371819633,	4.265,	0.17,	40,	0.502857142857143,	18.3357142857143,	0,	30
1940-05-31,	0.187677419354839,	0.353888907907248,	1.88562326317028,	0.01,	0.044,	1.5,	0.0674285714285714,	0.97,	0,	31
1940-06-30,	0.0299666666666667,	0.013842670993341,	0.461935628253872,	0.009,	0.014,	0.063,	0.0168571428571429,	0.129,	0,	30
1940-07-31,	0.0421290322580645,	0.0316193421136324,	0.750535685698777,	0.042,	0.005,	0.13,	0.00914285714285714,	0.0671428571428571,	0,	31
1940-08-31,	0.0298709677419355,	0.0127743021609372,	0.427649424394226,	0.0085,	0.018,	0.073,	0.0214285714285714,	0.0747142857142857,	0,	31
1940-09-30,	0.042,	0.00801189591735166,	0.190759426603611,	0.00775,	0.026,	0.058,	0.0254285714285714,	0.0501428571428571,	8,	22
1940-10-31,	0.0604,	0.0148593404968054,	0.246015571139162,	0.019,	0.049,	0.083,	NA,	NA,	26,	5
1940-11-30,	0.108,	0.0505773562527466,	0.468308854192098,	0.037,	0.04,	0.28,	0.0444285714285714,	0.152857142857143,	0,	30
1940-12-31,	0.108,	0.0347706773014274,	0.321950715753958,	0.0545,	0.054,	0.17,	0.061,	0.144285714285714,	0,	31
1941-01-31,	0.111548387096774,	0.0466139025825825,	0.417880561035297,	0.0475,	0.075,	0.24,	0.0651428571428571,	0.184285714285714,	0,	31
1941-02-28,	0.139,	0.0407976034154513,	0.293507938240657,	0.052,	0.094,	0.24,	0.0802857142857143,	0.181428571428571,	0,	28
1941-03-31,	0.145,	0.0488528402449643,	0.336916139620443,	0.035,	0.093,	0.33,	0.113857142857143,	0.194,	0,	31
1941-04-30,	99.8393333333333,	205.744061529641,	2.06075155612992,	72.21,	0.11,	889,	0.118571428571429,	374.014285714286,	0,	30
1941-05-31,	0.221258064516129,	0.333511915603419,	1.50734354624668,	0.2565,	0.021,	1.38,	0.0272857142857143,	2.86714285714286,	0,	31
1941-06-30,	0.0876666666666667,	0.102643451622203,	1.17083785120384,	0.07425,	0.01,	0.49,	0.0181428571428571,	0.296857142857143,	0,	30
1941-07-31,	0.0756129032258065,	0.0418415084330977,	0.553364659311446,	0.028,	0.024,	0.18,	0.0411428571428571,	0.133571428571429,	0,	31
1941-08-31,	0.181612903225806,	0.191713271566221,	1.05561481679447,	0.015,	0.12,	1.19,	0.124285714285714,	0.334285714285714,	0,	31
1941-09-30,	0.13,	0.00648885684523051,	0.0499142834248501,	0,	0.12,	0.14,	0.125714285714286,	0.141428571428571,	10,	20
1941-10-31,	0.271290322580645,	0.0907649688475266,	0.334567661625841,	0.115,	0.13,	0.4,	0.131428571428571,	0.382857142857143,	0,	31
1941-11-30,	0.245333333333333,	0.0600421308021656,	0.244736946204479,	0.11,	0.16,	0.35,	0.18,	0.367142857142857,	0,	30
1941-12-31,	0.214193548387097,	0.0241901072821635,	0.112935741829378,	0.025,	0.18,	0.26,	0.188571428571429,	0.245714285714286,	0,	31
1942-01-31,	0.18,	0,	0,	0,	0.18,	0.18,	NA,	NA,	29,	2
1942-02-28,	0.198928571428571,	0.012863754913562,	0.0646651952566851,	0.02,	0.18,	0.22,	0.18,	0.214285714285714,	0,	28
1942-03-31,	0.243225806451613,	0.01399692746622,	0.0575470492642997,	0.025,	0.22,	0.27,	0.215714285714286,	0.261428571428571,	0,	31
1942-04-30,	128.252666666667,	216.232679097969,	1.68598973197154,	122.195,	0.27,	874,	0.262857142857143,	474.857142857143,	0,	30
1942-05-31,	2.3541935483871,	2.79819676958042,	1.18860098461213,	3.265,	0.4,	12.8,	0.417142857142857,	24.1571428571429,	0,	31
1942-06-30,	0.564666666666667,	0.0564912769179109,	0.100043583679889,	0.0774999999999999,	0.48,	0.69,	0.464285714285714,	0.644285714285714,	0,	30
1942-07-31,	0.720322580645161,	0.102907203212983,	0.142862664559001,	0.15,	0.51,	0.87,	0.567142857142857,	0.84,	0,	31
1942-08-31,	0.242322580645161,	0.145069267845117,	0.598661781575962,	0.2615,	0.069,	0.5,	0.0707142857142857,	0.55,	0,	31
1942-09-30,	0.0803,	0.00462489515258603,	0.0575952073796517,	0.00775000000000001,	0.073,	0.088,	0.0712857142857143,	0.0862857142857143,	0,	30
1942-10-31,	0.106870967741935,	0.0122657842132328,	0.114771901783947,	0.023,	0.088,	0.13,	0.0867142857142857,	0.122857142857143,	0,	31
1942-11-30,	0.145666666666667,	0.00935260735665814,	0.0642055424942207,	0.00999999999999998,	0.13,	0.16,	0.124285714285714,	0.157142857142857,	0,	30
1942-12-31,	0.11495,	0.0105903381984663,	0.0921299538796547,	0.01,	0.099,	0.13,	0.104142857142857,	0.137142857142857,	11,	20
1943-01-31,	0.16,	0.0515751878329105,	0.322344923955691,	0.07,	0.04,	0.24,	0.111428571428571,	0.191428571428571,	0,	31
1943-02-28,	0.437142857142857,	0.128289520453547,	0.293472759207461,	0.1775,	0.2,	0.59,	0.191428571428571,	0.572857142857143,	0,	28
1943-03-31,	1.66322580645161,	1.09930095089796,	0.66094510236301,	1.875,	0.5,	3.96,	0.478571428571429,	3.07857142857143,	0,	31
1943-04-30,	19.348,	21.3297849707059,	1.10242841485972,	26.355,	0.76,	80.8,	0.84,	49.9142857142857,	0,	30
1943-05-31,	0.407096774193548,	0.176223221102992,	0.432877959920186,	0.31,	0.23,	0.74,	0.23,	0.814285714285714,	0,	31
1943-06-30,	0.205666666666667,	0.0119433528860584,	0.0580714078738658,	0.0175,	0.19,	0.23,	0.19,	0.23,	0,	30
1943-07-31,	0.164193548387097,	0.0123218487650696,	0.0750446584906007,	0.025,	0.14,	0.18,	0.148571428571429,	0.188571428571429,	0,	31
1943-08-31,	0.130967741935484,	0.0168037374234975,	0.128304399046409,	0.02,	0.11,	0.18,	0.114285714285714,	0.147142857142857,	0,	31
1943-09-30,	0.36,	0.0881612941891364,	0.244892483858712,	0.155,	0.2,	0.47,	0.158571428571429,	0.455714285714286,	0,	30
1943-10-31,	0.349354838709677,	0.0470415053522573,	0.134652508395196,	0.08,	0.28,	0.43,	0.288571428571429,	0.442857142857143,	0,	31
1943-11-30,	0.237666666666667,	0.021922014338187,	0.0922384895014883,	0.0375,	0.21,	0.28,	0.211428571428571,	0.285714285714286,	0,	30
1943-12-31,	0.215483870967742,	0.0357620571441688,	0.165961642435514,	0.045,	0.18,	0.3,	0.184285714285714,	0.274285714285714,	0,	31
1944-01-31,	0.435806451612903,	0.0779647011387584,	0.178897537772133,	0.125,	0.31,	0.56,	0.282857142857143,	0.538571428571429,	0,	31
1944-02-29,	0.661818181818182,	0.0550009838558205,	0.0831058821997287,	0.0875,	0.57,	0.75,	0.547142857142857,	0.725714285714286,	7,	22
1944-03-31,	33.4926923076923,	31.7455679498972,	0.947835654961847,	17.125,	6.09,	157,	22.0985714285714,	60.6,	5,	26
1944-04-30,	6.40166666666667,	11.4584647474178,	1.78991899204652,	4.87,	0.32,	39.8,	0.322857142857143,	32.2942857142857,	0,	30
1944-05-31,	0.281935483870968,	0.0193940463095782,	0.0687889514412957,	0.03,	0.25,	0.31,	0.255714285714286,	0.32,	0,	31
1944-06-30,	0.191333333333333,	0.031702641392546,	0.165693247696233,	0.055,	0.14,	0.24,	0.15,	0.252857142857143,	0,	30
1944-07-31,	0.305096774193548,	0.167052757103599,	0.547540227343155,	0.31,	0.098,	0.6,	0.114,	0.54,	0,	31
1944-08-31,	0.615483870967742,	0.0893248270705451,	0.145129436016085,	0.145,	0.45,	0.75,	0.488571428571429,	0.724285714285714,	0,	31
1944-09-30,	0.282333333333333,	0.0817347827588945,	0.289497459594668,	0.135,	0.18,	0.44,	0.194285714285714,	0.475714285714286,	0,	30
1944-10-31,	0.126129032258065,	0.0236188370239856,	0.187259321673543,	0.03,	0.1,	0.18,	0.102857142857143,	0.19,	0,	31
1944-11-30,	0.124666666666667,	0.0110588810724554,	0.0887076021854713,	0.01,	0.1,	0.14,	0.11,	0.137142857142857,	0,	30
1944-12-31,	0.0655161290322581,	0.0165385831068685,	0.252435291143734,	0.0265,	0.047,	0.099,	0.0487142857142857,	0.107,	0,	31
1945-01-31,	0.0347741935483871,	0.00638075062156669,	0.183490973347465,	0.0115,	0.026,	0.046,	0.027,	0.048,	0,	31
1945-02-28,	0.0657857142857143,	0.0289576410217575,	0.440181296747671,	0.05775,	0.028,	0.11,	0.027,	0.0985714285714286,	0,	28
1945-03-31,	0.0850322580645161,	0.0360947677380603,	0.424483232124381,	0.06,	0.03,	0.14,	0.0418571428571429,	0.127142857142857,	0,	31
1945-04-30,	3.02384615384615,	3.147124499505,	1.04076872280756,	4.5475,	0.15,	9.55,	0.09,	7.47571428571429,	4,	26
1945-05-31,	NA,	NA,	NA,	NA,	NA,	NA,	NA,	NA,	31,	0
1945-06-30,	0.151428571428571,	0.00377964473009228,	0.0249599180289113,	0,	0.15,	0.16,	0.151428571428571,	0.151428571428571,	23,	7
1945-07-31,	0.15,	0,	0,	0,	0.15,	0.15,	NA,	NA,	28,	3
1945-08-31,	0.0813225806451613,	0.0308937826504236,	0.379891813630754,	0.05,	0.044,	0.14,	0.0488571428571429,	0.141428571428571,	0,	31
1945-09-30,	0.0839,	0.0117737442061385,	0.140330681837169,	0.01925,	0.065,	0.1,	0.0581428571428571,	0.0968571428571429,	10,	20
1945-10-31,	NA,	NA,	NA,	NA,	NA,	NA,	NA,	NA,	31,	0
1945-11-30,	0.1014,	0.00717635004720366,	0.0707726829112787,	0.014,	0.09,	0.11,	0.093,	0.11,	5,	25
1945-12-31,	0.07945,	0.00587120538148505,	0.0738981168217124,	0.01025,	0.071,	0.089,	0.0732857142857143,	0.092,	11,	20
1946-01-31,	0.0414838709677419,	0.00810707907836082,	0.195427256165774,	0.014,	0.03,	0.055,	0.034,	0.0517142857142857,	0,	31
1946-02-28,	0.0391785714285714,	0.0148524934218656,	0.37909737084069,	0.02225,	0.02,	0.064,	0.0254285714285714,	0.0602857142857143,	0,	28
1946-03-31,	4.3261935483871,	11.5634314382867,	2.67288814264859,	0.022,	0.017,	48.3,	0.0177142857142857,	19.088,	0,	31
1946-04-30,	24.0776666666667,	31.230158355659,	1.29705917055885,	53.7875,	0.31,	90.2,	0.335714285714286,	65.6571428571429,	0,	30
1946-05-31,	0.24258064516129,	0.0269527663311807,	0.111108478226942,	0.04,	0.2,	0.31,	0.207142857142857,	0.327142857142857,	0,	31
1946-06-30,	0.153,	0.018411016192524,	0.120333439166823,	0.02,	0.12,	0.19,	0.13,	0.202857142857143,	0,	30
1946-07-31,	0.105387096774194,	0.00977301529503506,	0.0927344579571738,	0.011,	0.095,	0.13,	0.0975714285714286,	0.128571428571429,	0,	31
1946-08-31,	0.10185,	0.00500815125044845,	0.0491718335831954,	0.00275,	0.095,	0.11,	0.0981428571428571,	0.107142857142857,	11,	20
1946-09-30,	0.0825666666666667,	0.00713748402176282,	0.0864451032106922,	0.012,	0.072,	0.095,	0.0742857142857143,	0.0974285714285714,	0,	30
1946-10-31,	0.082,	0.00334664010613631,	0.0408126842211744,	0.003,	0.076,	0.084,	0.0745714285714286,	0.0754285714285714,	25,	6
1946-11-30,	0.084,	0,	0,	0,	0.084,	0.084,	0.084,	0.084,	21,	9
1946-12-31,	0.079,	0.011916375287813,	0.15084019351662,	0.017,	0.053,	0.089,	0.0597142857142857,	0.0885714285714286,	0,	31
1947-01-31,	0.0244838709677419,	0.0114334916444101,	0.466980554646526,	0.02,	0.011,	0.048,	0.0112857142857143,	0.0568571428571429,	0,	31
1947-02-28,	0.00825,	0.000707106781186547,	0.0857099128710966,	0.000999999999999999,	0.007,	0.009,	0.00928571428571429,	0.0107142857142857,	20,	8
1947-03-31,	7.7161,	16.5771149570726,	2.14838000506378,	4.2775,	0.008,	58.4,	0.00928571428571429,	31.9485714285714,	1,	30
1947-04-30,	0.560333333333333,	1.69701661815636,	3.02858408951165,	0.01,	0.14,	9.22,	0.152857142857143,	32.1028571428571,	0,	30
1947-05-31,	0.116935483870968,	0.0212727297791812,	0.181918516732309,	0.03,	0.082,	0.17,	0.0935714285714286,	0.162857142857143,	0,	31
1947-06-30,	0.1059,	0.0176388090926484,	0.166560992376283,	0.02675,	0.074,	0.14,	0.0822857142857143,	0.127142857142857,	0,	30
1947-07-31,	0.0639032258064516,	0.0268667760610383,	0.420429105447848,	0.0345,	0.041,	0.12,	0.043,	0.108571428571429,	0,	31
1947-08-31,	0.0914838709677419,	0.02501848778769,	0.273474302333706,	0.036,	0.048,	0.14,	0.0554285714285714,	0.117142857142857,	0,	31
1947-09-30,	0.067,	0.0079089647955931,	0.118044250680494,	0.00899999999999999,	0.048,	0.082,	0.058,	0.0961428571428571,	0,	30
1947-10-31,	0.0782903225806452,	0.0257140604188799,	0.328444941485487,	0.0475,	0.041,	0.12,	0.0495714285714286,	0.112857142857143,	0,	31
1947-11-30,	0.145,	0.0154919333848297,	0.106840919895377,	0.03,	0.13,	0.17,	0.117142857142857,	0.16,	14,	16
1947-12-31,	0.14158064516129,	0.0638538822591853,	0.451007142865059,	0.055,	0.087,	0.45,	0.0927142857142857,	0.165714285714286,	0,	31
1948-01-31,	1.57354838709677,	2.39756897486752,	1.52367032023151,	1.555,	0.14,	8.76,	0.155714285714286,	5.23285714285714,	0,	31
1948-02-29,	0.143793103448276,	0.0419535281253852,	0.291763145236492,	0.05,	0.1,	0.24,	0.108571428571429,	0.181428571428571,	0,	29
1948-03-31,	0.257903225806452,	0.416845083521341,	1.61628487669313,	0.08,	0.02,	1.44,	0.0257142857142857,	0.945714285714286,	0,	31
1948-04-30,	36.5536666666667,	68.5159365546004,	1.8743929898852,	32.73,	0.41,	275,	0.722857142857143,	134.628571428571,	0,	30
1948-05-31,	0.206129032258065,	0.102263627269746,	0.496114623687345,	0.09,	0.1,	0.49,	0.124285714285714,	0.652857142857143,	0,	31
1948-06-30,	0.413,	1.81071856569096,	4.38430645445753,	0.01,	0.074,	10,	0.074,	1.52285714285714,	0,	30
1948-07-31,	0.0914838709677419,	0.00803272875072946,	0.0878048629311048,	0.016,	0.074,	0.1,	0.0825714285714286,	0.1,	0,	31
1948-08-31,	0.0519032258064516,	0.013254822615963,	0.255375699872501,	0.0195,	0.034,	0.074,	0.037,	0.0811428571428571,	0,	31
1948-09-30,	0.0898461538461539,	0.0111493359581498,	0.124093636520503,	0.016,	0.074,	0.1,	0.0607142857142857,	0.0968571428571429,	17,	13
1948-10-31,	0.131935483870968,	0.012759141778534,	0.0967074315732404,	0.01,	0.1,	0.15,	0.114285714285714,	0.141428571428571,	0,	31
1948-11-30,	0.121166666666667,	0.0230218536857143,	0.19000154348595,	0.04475,	0.088,	0.15,	0.0902857142857143,	0.144285714285714,	0,	30
1948-12-31,	0.126322580645161,	0.0708888270918035,	0.56117304388302,	0.049,	0.059,	0.37,	0.0804285714285714,	0.231428571428571,	0,	31
1949-01-31,	0.069741935483871,	0.0110663686965975,	0.158675961884608,	0.017,	0.059,	0.11,	0.059,	0.084,	0,	31
1949-02-28,	0.0848571428571429,	0.0346823834946176,	0.408714957007278,	0.01425,	0.067,	0.23,	0.0674285714285714,	0.125857142857143,	0,	28
1949-03-31,	0.0773870967741935,	0.0136398372897305,	0.176254671105313,	0.02,	0.053,	0.11,	0.0647142857142857,	0.0868571428571429,	0,	31
1949-04-30,	29.2306666666667,	56.3977602229106,	1.92940383009547,	27.8975,	0.11,	248,	0.0874285714285714,	108.971428571429,	0,	30
1949-05-31,	0.576774193548387,	0.51775404132834,	0.89767199559164,	0.535,	0.17,	1.96,	0.2,	2.22571428571429,	0,	31
1949-06-30,	0.138923076923077,	0.033767493092375,	0.243066118605135,	0.05,	0.083,	0.17,	0.154285714285714,	0.195714285714286,	17,	13
1949-07-31,	0.0966,	0.00716782936304833,	0.0742011321226535,	0,	0.083,	0.1,	0.0951428571428572,	0.102857142857143,	21,	10
1949-08-31,	0.0567058823529412,	0.00791173737148132,	0.139522339538571,	0,	0.044,	0.069,	0.0511428571428571,	0.059,	14,	17
1949-09-30,	0.0655,	0.00648074069840786,	0.0989426060825628,	0.0035,	0.055,	0.069,	0.059,	0.063,	22,	8
1949-10-31,	0.083625,	0.010248276631368,	0.122550393200215,	0,	0.069,	0.1,	0.075,	0.0878571428571429,	7,	24
1949-11-30,	0.0610454545454545,	0.0101955978956713,	0.167016495684861,	0.01075,	0.037,	0.081,	0.0502857142857143,	0.0718571428571429,	8,	22
1949-12-31,	0.0585483870967742,	0.0225149412756321,	0.384552716002531,	0.026,	0.035,	0.14,	0.042,	0.0817142857142857,	0,	31
1950-01-31,	0.0699354838709677,	0.0248353719304691,	0.35511832557405,	0.0245,	0.027,	0.14,	0.046,	0.0954285714285714,	0,	31
1950-02-28,	0.0836785714285714,	0.0322559825877063,	0.385474823924787,	0.01825,	0.037,	0.18,	0.0612857142857143,	0.127714285714286,	0,	28
1950-03-31,	0.139129032258065,	0.0682835958511676,	0.490793292693298,	0.07,	0.046,	0.29,	0.0632857142857143,	0.212857142857143,	0,	31
1950-04-30,	3.816,	7.21860985757383,	1.89166924988832,	2.245,	0.14,	28.4,	0.18,	14.37,	0,	30
1950-05-31,	0.0900588235294118,	0.0226010801407679,	0.250959087128056,	0.056,	0.064,	0.12,	0.068,	0.158571428571429,	14,	17
1950-06-30,	0.0899,	0.00987630392962594,	0.109858775635439,	0,	0.078,	0.12,	0.0757142857142857,	0.0951428571428571,	0,	30
1950-07-31,	0.0591935483870968,	0.00808050887357436,	0.136509959172101,	0.01,	0.045,	0.078,	0.0501428571428571,	0.0932857142857143,	0,	31
1950-08-31,	0.0590967741935484,	0.0117653582994305,	0.199086303101717,	0.0145,	0.04,	0.078,	0.0435714285714286,	0.0672857142857143,	0,	31
1950-09-30,	0.0608,	0.0138082101181387,	0.227108719048333,	0.01,	0.054,	0.12,	0.054,	0.074,	5,	25
1950-10-31,	0.0853846153846154,	0.012831451743515,	0.150278263662788,	0.013,	0.078,	0.14,	0.078,	0.098,	5,	26
1950-11-30,	0.0783666666666667,	0.0102435289357463,	0.130712832017179,	0.0195,	0.061,	0.094,	0.0668571428571429,	0.091,	0,	30
1950-12-31,	0.0888421052631579,	0.0437838924693326,	0.492828173529218,	0.045,	0.042,	0.19,	0.0637142857142857,	0.133,	12,	19
1951-01-31,	0.0643684210526316,	0.0166973401950922,	0.25940266860732,	0.03,	0.046,	0.097,	0.0524285714285714,	0.0824285714285714,	12,	19
1951-02-28,	NA,	NA,	NA,	NA,	NA,	NA,	NA,	NA,	28,	0
1951-03-31,	43.3311481481481,	77.9023706204433,	1.79783767450835,	38.1055,	0.065,	245,	0.103,	156.342857142857,	4,	27
1951-04-30,	1.24533333333333,	2.1792117102661,	1.74990233693745,	0.85,	0.1,	10.2,	0.102857142857143,	125.371428571429,	0,	30
1951-05-31,	0.0892857142857143,	0.00834950811211569,	0.0935144908556957,	0.018,	0.078,	0.1,	0.081,	0.1,	10,	21
1951-06-30,	0.0630333333333333,	0.0098172379475869,	0.155746768073827,	0.01575,	0.046,	0.078,	0.0495714285714286,	0.0801428571428571,	0,	30
1951-07-31,	0.0340322580645161,	0.00863127596194113,	0.253620431109171,	0.014,	0.02,	0.052,	0.023,	0.0484285714285714,	0,	31
1951-08-31,	0.0547096774193548,	0.00635711437885197,	0.116197255745525,	0.01,	0.044,	0.065,	0.0455714285714286,	0.0628571428571429,	0,	31
1951-09-30,	0.0488,	0.00816806227812389,	0.167378325371391,	0.0145,	0.038,	0.064,	0.0395714285714286,	0.0602857142857143,	0,	30
1951-10-31,	0.0814193548387097,	0.00999924728349885,	0.122811674242656,	0.016,	0.065,	0.096,	0.0614285714285714,	0.0945714285714286,	0,	31
1951-11-30,	0.0937666666666667,	0.00110432795395438,	0.0117774044147285,	0.002,	0.092,	0.096,	0.0924285714285714,	0.0955714285714286,	0,	30
1951-12-31,	0.114129032258065,	0.0114854746977327,	0.100635872139546,	0.015,	0.095,	0.13,	0.0927142857142857,	0.128571428571429,	0,	31
1952-01-31,	0.0951612903225806,	0.00934557568832635,	0.0982077445213956,	0.0105,	0.084,	0.12,	0.0858571428571429,	0.124285714285714,	0,	31
1952-02-29,	0.0773448275862069,	0.00325440209638055,	0.0420765317855711,	0.005,	0.073,	0.084,	0.0737142857142857,	0.0852857142857143,	0,	29
1952-03-31,	0.102161290322581,	0.0178794048636852,	0.175011541134904,	0.027,	0.075,	0.14,	0.0738571428571429,	0.127142857142857,	0,	31
1952-04-30,	32.6526666666667,	62.0765822320237,	1.90111830270188,	16.2475,	0.14,	229,	0.13,	124.271428571429,	0,	30
1952-05-31,	0.850967741935484,	1.09466693515641,	1.28637888513452,	1.03,	0.12,	3.59,	0.147142857142857,	5.87,	0,	31
1952-06-30,	0.0980333333333333,	0.0123525324315002,	0.126003391004762,	0.00975000000000001,	0.082,	0.13,	0.0895714285714286,	0.142857142857143,	0,	30
1952-07-31,	0.0871290322580645,	0.0238029997206009,	0.273192518081683,	0.04,	0.043,	0.13,	0.0564285714285714,	0.118571428571429,	0,	31
1952-08-31,	0.043258064516129,	0.00657757676724736,	0.152054347341289,	0.01,	0.036,	0.054,	0.036,	0.054,	0,	31
1952-09-30,	0.0435666666666667,	0.00406569613442412,	0.0933212578674244,	0.00375,	0.04,	0.053,	0.0401428571428571,	0.0495714285714286,	0,	30
1952-10-31,	0.0690322580645161,	0.022582417749166,	0.327128481413153,	0.0525,	0.042,	0.1,	0.0405714285714286,	0.1,	0,	31
1952-11-30,	0.107466666666667,	0.0211997614386924,	0.197268251600736,	0.03925,	0.08,	0.15,	0.0835714285714286,	0.135714285714286,	0,	30
1952-12-31,	0.0660645161290323,	0.00597179751761543,	0.090393419456093,	0.00900000000000001,	0.059,	0.079,	0.0601428571428571,	0.0824285714285714,	0,	31
1953-01-31,	0.115709677419355,	0.0516444211562018,	0.446327587354964,	0.066,	0.049,	0.25,	0.0624285714285714,	0.178571428571429,	0,	31
1953-02-28,	0.0978571428571429,	0.0371919090023367,	0.380063303673514,	0.0345,	0.056,	0.19,	0.0678571428571429,	0.128,	0,	28
1953-03-31,	0.0787741935483871,	0.0371256512198052,	0.471292050701868,	0.047,	0.032,	0.17,	0.0348571428571429,	0.117714285714286,	0,	31
1953-04-30,	13.7006666666667,	20.1718743993118,	1.47232794506193,	12.4525,	0.21,	81.7,	0.132857142857143,	44.1857142857143,	0,	30
1953-05-31,	0.35741935483871,	0.233480445175972,	0.653239512676455,	0.23,	0.09,	1.17,	0.167142857142857,	1.04428571428571,	0,	31
1953-06-30,	0.0550333333333333,	0.0161874436935958,	0.294138892070184,	0.00675,	0.034,	0.09,	0.0404285714285714,	0.128571428571429,	0,	30
1953-07-31,	0.044258064516129,	0.0127644499605623,	0.28840958365702,	0.018,	0.034,	0.09,	0.0352857142857143,	0.0547142857142857,	0,	31
1953-08-31,	0.043,	0.00636396103067893,	0.147999093736719,	0,	0.034,	0.052,	0.0352857142857143,	0.0455714285714286,	18,	13
1953-09-30,	0.0813076923076923,	0.13525287996365,	1.66346966842711,	0.003,	0.034,	0.72,	0.0465714285714286,	0.173571428571429,	4,	26
1953-10-31,	0.0550967741935484,	0.00502231579194086,	0.0911544435305425,	0.004,	0.044,	0.078,	0.0504285714285714,	0.0578571428571429,	0,	31
1953-11-30,	0.0557333333333333,	0.00962372547166756,	0.172674500089729,	0.01,	0.032,	0.076,	0.0428571428571429,	0.0644285714285714,	0,	30
1953-12-31,	0.0470322580645161,	0.0108734657798016,	0.231191659241323,	0.016,	0.027,	0.062,	0.0302857142857143,	0.0584285714285714,	0,	31
1954-01-31,	0.0519354838709677,	0.016919289748432,	0.325775144224468,	0.0255,	0.029,	0.085,	0.0357142857142857,	0.0787142857142857,	0,	31
1954-02-28,	0.05225,	0.00910687570933002,	0.1742942719489,	0.0145,	0.038,	0.067,	0.0385714285714286,	0.0635714285714286,	0,	28
1954-03-31,	0.0699677419354839,	0.0301014771187592,	0.430219359465899,	0.018,	0.046,	0.19,	0.046,	0.105571428571429,	0,	31
1954-04-30,	0.987666666666667,	0.847978054910146,	0.858567048508417,	0.5425,	0.2,	3.71,	0.121714285714286,	2.25142857142857,	0,	30
1954-05-31,	0.166548387096774,	0.0804797443293145,	0.483221397290093,	0.141,	0.061,	0.31,	0.0807142857142857,	0.515714285714286,	0,	31
1954-06-30,	0.0415666666666667,	0.0166788805820794,	0.401256148726849,	0.011,	0.015,	0.1,	0.0275714285714286,	0.0782857142857143,	0,	30
1954-07-31,	0.0211875,	0.0080018227090249,	0.37766714850855,	0.011,	0.015,	0.037,	0.015,	0.0322857142857143,	15,	16
1954-08-31,	0.0223333333333333,	0.00536745040121693,	0.24033360005449,	0.011,	0.015,	0.026,	0.0212857142857143,	0.0291428571428571,	16,	15
1954-09-30,	0.0238,	0.00616673101639527,	0.259106345226692,	0.0055,	0.015,	0.037,	0.0212857142857143,	0.026,	15,	15
1954-10-31,	0.0489354838709677,	0.0179757901706174,	0.367336516340896,	0.024,	0.015,	0.089,	0.0228571428571429,	0.0671428571428571,	0,	31
1954-11-30,	0.0496666666666667,	0.0104364524734167,	0.210129915572148,	0,	0.026,	0.074,	0.0417142857142857,	0.0647142857142857,	0,	30
1954-12-31,	0.0337096774193548,	0.0109884592440951,	0.325973432121482,	0.014,	0.015,	0.051,	0.0182857142857143,	0.0471428571428571,	0,	31
1955-01-31,	0.0715483870967742,	0.0397079662113934,	0.554980591773307,	0.0625,	0.021,	0.16,	0.0241428571428571,	0.110857142857143,	0,	31
1955-02-28,	6.40171428571429,	14.1445674504309,	2.20949683462055,	4.4135,	0.053,	56.2,	0.0652857142857143,	24.5957142857143,	0,	28
1955-03-31,	91.2645806451613,	192.87220593211,	2.1133303256167,	26.125,	0.082,	663,	0.153142857142857,	394.257142857143,	0,	31
1955-04-30,	3.48266666666667,	4.6338573589385,	1.33054862909796,	2,	0.65,	18.8,	0.892857142857143,	316.214285714286,	0,	30
1955-05-31,	0.305483870967742,	0.210884466152716,	0.69032929786,	0.23,	0.14,	0.92,	0.16,	0.821428571428571,	0,	31
1955-06-30,	0.0756333333333333,	0.0356007393698243,	0.47070171048688,	0.045,	0.043,	0.14,	0.047,	0.154285714285714,	0,	30
1955-07-31,	0.0380645161290323,	0.00604392523597575,	0.158781086707837,	0.011,	0.032,	0.05,	0.0334285714285714,	0.049,	0,	31
1955-08-31,	0.0403548387096774,	0.00374653962207594,	0.0928399106989242,	0.006,	0.032,	0.05,	0.0342857142857143,	0.0414285714285714,	0,	31
1955-09-30,	0.0515238095238095,	0.00658497568423033,	0.127804518825173,	0,	0.043,	0.062,	0.0421428571428571,	0.0585714285714286,	9,	21
1955-10-31,	0.0736206896551724,	0.0252380294016553,	0.342811640584545,	0.013,	0.05,	0.14,	0.0534285714285714,	0.100142857142857,	2,	29
1955-11-30,	0.0996,	0.0347420047860184,	0.34881530909657,	0.06425,	0.065,	0.16,	0.0675714285714286,	0.151428571428571,	0,	30
1955-12-31,	0.0839354838709677,	0.0324406488671964,	0.386495047995038,	0.027,	0.053,	0.18,	0.0582857142857143,	0.132285714285714,	0,	31
1956-01-31,	0.062,	0.0063742904661906,	0.102811136551461,	0.004,	0.051,	0.071,	0.0558571428571429,	0.0684285714285714,	11,	20
1956-02-29,	0.0582413793103448,	0.00628862449424011,	0.107975198539351,	0.01,	0.045,	0.067,	0.0552857142857143,	0.0618571428571429,	0,	29
1956-03-31,	0.0645483870967742,	0.00559069888104293,	0.0866125263929689,	0.00600000000000001,	0.056,	0.078,	0.0591428571428571,	0.0708571428571429,	0,	31
1956-04-30,	23.5249666666667,	31.3017277792196,	1.33057479837249,	32.3,	0.068,	112,	0.0647142857142857,	73.6142857142857,	0,	30
1956-05-31,	0.626129032258064,	0.414903020149326,	0.662647791067961,	0.43,	0.19,	1.52,	0.297142857142857,	5.02571428571429,	0,	31
1956-06-30,	0.0649090909090909,	0.0530650177037199,	0.817528283950866,	0.0315,	0.03,	0.19,	0.0311428571428571,	0.274285714285714,	8,	22
1956-07-31,	0.0589333333333333,	0.0145772164042124,	0.247350957085051,	0.018,	0.05,	0.09,	0.05,	0.0665714285714286,	16,	15
1956-08-31,	0.0975555555555556,	0.0742731225412406,	0.761341802814539,	0.102,	0.038,	0.26,	0.0754285714285714,	0.18,	13,	18
1956-09-30,	0.0429333333333333,	0.0105795291379914,	0.246417604145763,	0.012,	0.03,	0.068,	0.0311428571428571,	0.0534285714285714,	0,	30
1956-10-31,	0.0638947368421053,	0.0143832260978703,	0.22510815144937,	0.018,	0.05,	0.09,	0.0482857142857143,	0.0774285714285714,	12,	19
1956-11-30,	0.133033333333333,	0.0478975079139595,	0.360041402510345,	0.0635,	0.092,	0.32,	0.0845714285714286,	0.195714285714286,	0,	30
1956-12-31,	0.0889354838709677,	0.0033856115535303,	0.038068174885542,	0.0025,	0.079,	0.092,	0.0841428571428571,	0.0927142857142857,	0,	31
1957-01-31,	0.0419032258064516,	0.015000788509741,	0.357986484836006,	0.0215,	0.021,	0.073,	0.0252857142857143,	0.082,	0,	31
1957-02-28,	0.0588571428571429,	0.00564186917879951,	0.0958570006106712,	0.00725,	0.047,	0.067,	0.0401428571428571,	0.0652857142857143,	0,	28
1957-03-31,	0.0849677419354839,	0.0458682779786988,	0.539831669453175,	0.011,	0.068,	0.33,	0.0658571428571429,	0.120142857142857,	0,	31
1957-04-30,	61.6117,	136.096383322984,	2.20893731747353,	30.3775,	0.32,	560,	0.154,	245.557142857143,	0,	30
1957-05-31,	0.214,	0.144962293948001,	0.677393896953276,	0.2465,	0.065,	0.56,	0.0684285714285714,	0.937285714285714,	0,	31
1957-06-30,	0.0491666666666667,	0.00825909460402052,	0.167981585166519,	0.0145,	0.039,	0.064,	0.0398571428571429,	0.0672857142857143,	0,	30
1957-07-31,	0.0333870967741935,	0.00283639935310996,	0.08495495646996,	0.005,	0.029,	0.038,	0.0298571428571429,	0.0394285714285714,	0,	31
1957-08-31,	0.0430322580645161,	0.00509564435551084,	0.118414524003625,	0.008,	0.033,	0.051,	0.0308571428571429,	0.0492857142857143,	0,	31
1957-09-30,	0.0369333333333333,	0.00508502421472777,	0.137681161048586,	0.00775,	0.029,	0.047,	0.0307142857142857,	0.044,	0,	30
1957-10-31,	0.0611935483870968,	0.00816259499113164,	0.133389796903047,	0.013,	0.048,	0.075,	0.045,	0.072,	0,	31
1957-11-30,	0.074,	0.0177569801719658,	0.239959191513051,	0.0155,	0.028,	0.092,	0.0454285714285714,	0.0891428571428571,	0,	30
1957-12-31,	0.134354838709677,	0.0482614742053444,	0.359209051708445,	0.0735,	0.036,	0.19,	0.0397142857142857,	0.182857142857143,	0,	31
1958-01-31,	0.76141935483871,	1.46693119071058,	1.92657460227199,	0.319,	0.043,	6.28,	0.0537142857142857,	2.88142857142857,	0,	31
1958-02-28,	9.84228571428571,	21.2021464721489,	2.15418928972716,	4.982,	0.026,	78.8,	0.0301428571428571,	38.7385714285714,	0,	28
1958-03-31,	20.1451612903226,	29.8582077907084,	1.48215282868208,	25.31,	0.79,	117,	0.982857142857143,	55.1142857142857,	0,	31
1958-04-30,	13.0023333333333,	24.6276120173711,	1.8940917284619,	6.61,	0.73,	87.7,	0.848571428571429,	48.1285714285714,	0,	30
1958-05-31,	0.398709677419355,	0.478361731576178,	1.19977456948718,	0.425,	0.03,	2.08,	0.0385714285714286,	1.34,	0,	31
1958-06-30,	0.0853333333333333,	0.0727292254178818,	0.852295610365802,	0.045,	0.03,	0.39,	0.0457142857142857,	0.171428571428571,	0,	30
1958-07-31,	0.606612903225806,	1.69608145789875,	2.79598645013886,	0.055,	0.03,	8.94,	0.0371428571428571,	2.44285714285714,	0,	31
1958-08-31,	0.122,	0.222834916474057,	1.82651570880375,	0.0985,	0.007,	1.06,	0.0142857142857143,	0.246428571428571,	0,	31
1958-09-30,	0.170576923076923,	0.185301521435076,	1.08632233535783,	0.07,	0.05,	0.81,	0.0807142857142857,	0.364285714285714,	4,	26
1958-10-31,	0.137916666666667,	0.0164129235046964,	0.119006091876953,	0.03,	0.1,	0.15,	0.125714285714286,	0.145714285714286,	7,	24
1958-11-30,	0.142727272727273,	0.00467099366496913,	0.0327267072067901,	0.005,	0.14,	0.15,	0.14,	0.15,	19,	11
1958-12-31,	0.158347826086957,	0.0308524475169566,	0.194839728964855,	0.055,	0.13,	0.22,	0.13,	0.198857142857143,	8,	23
1959-01-31,	0.227741935483871,	0.164186878838705,	0.720933887252105,	0.1,	0.074,	0.8,	0.0842857142857143,	0.468571428571429,	0,	31
1959-02-28,	0.100892857142857,	0.0233703504557223,	0.231635331950522,	0.037,	0.069,	0.14,	0.0745714285714286,	0.132857142857143,	0,	28
1959-03-31,	0.476516129032258,	0.887763927740843,	1.86303017600637,	0.1,	0.094,	3.99,	0.102571428571429,	1.57571428571429,	0,	31
1959-04-30,	9.081,	8.39498468914831,	0.924455972816684,	14.0825,	0.24,	28.7,	0.701428571428571,	20.7428571428571,	0,	30
1959-05-31,	0.172903225806452,	0.0408406291485245,	0.236205131269452,	0.04,	0.1,	0.24,	0.117142857142857,	0.524285714285714,	0,	31
1959-06-30,	0.39375,	0.530220001508808,	1.34659048002237,	0.22,	0.027,	1.89,	0.162857142857143,	0.83,	10,	20
1959-07-31,	0.928225806451613,	2.00758708752036,	2.16282188403584,	0.215,	0.04,	9.12,	0.0457142857142857,	3.82714285714286,	0,	31
1959-08-31,	0.355322580645161,	0.650685453302734,	1.83125275101087,	0.1,	0.075,	3,	0.0964285714285714,	4.31857142857143,	0,	31
1959-09-30,	0.133833333333333,	0.117059396456887,	0.874665477884583,	0.11375,	0.04,	0.6,	0.0578571428571429,	0.29,	0,	30
1959-10-31,	0.296129032258065,	0.303487258594216,	1.02484804100443,	0.29,	0.1,	1.68,	0.07,	0.621428571428571,	0,	31
1959-11-30,	0.386666666666667,	0.249224083262756,	0.64454504292092,	0.2075,	0.1,	0.98,	0.145714285714286,	0.764285714285714,	0,	30
1959-12-31,	0.243516129032258,	0.131365868466088,	0.539454487011355,	0.235,	0.083,	0.51,	0.0941428571428571,	0.42,	0,	31
1960-01-31,	0.102258064516129,	0.026585670002134,	0.25998604733948,	0.02,	0.076,	0.19,	0.0838571428571429,	0.152857142857143,	0,	31
1960-02-29,	0.0907586206896552,	0.0336671259459154,	0.3709523755439,	0.044,	0.036,	0.15,	0.0601428571428571,	0.121428571428571,	0,	29
1960-03-31,	0.546387096774194,	2.10273286744369,	3.84843068194323,	0.0755,	0.024,	11.7,	0.0302857142857143,	2.19857142857143,	0,	31
1960-04-30,	16.4633333333333,	18.9833455743555,	1.1530681660876,	33.615,	0.25,	55.2,	0.76,	45.3571428571429,	0,	30
1960-05-31,	0.303838709677419,	0.230068989185736,	0.757207629765135,	0.33,	0.055,	0.72,	0.0884285714285714,	0.697142857142857,	0,	31
1960-06-30,	0.0641052631578947,	0.0180335943814812,	0.281312227625733,	0.013,	0.048,	0.11,	0.051,	0.0805714285714286,	11,	19
1960-07-31,	0.0647894736842105,	0.0168278174044197,	0.259730731668542,	0.013,	0.055,	0.11,	0.0551428571428571,	0.0642857142857143,	12,	19
1960-08-31,	0.0640322580645161,	0.00341060963238482,	0.0532639287677227,	0.00600000000000001,	0.058,	0.069,	0.057,	0.0682857142857143,	0,	31
1960-09-30,	0.0815333333333333,	0.00906578765177778,	0.111191181338239,	0.01475,	0.07,	0.098,	0.0685714285714286,	0.0947142857142857,	0,	30
1960-10-31,	0.0842258064516129,	0.00714940406569832,	0.0848837709830134,	0.012,	0.072,	0.096,	0.0748571428571429,	0.0954285714285714,	0,	31
1960-11-30,	0.113033333333333,	0.0110562303650502,	0.0978138929376305,	0.0175,	0.094,	0.13,	0.0932857142857143,	0.127142857142857,	0,	30
1960-12-31,	0.983354838709677,	1.65515212892727,	1.68316874415252,	1.135,	0.072,	8.18,	0.0854285714285714,	3.17428571428571,	0,	31
1961-01-31,	0.230322580645161,	0.0502980364737857,	0.218380830628481,	0.1,	0.15,	0.31,	0.171428571428571,	0.284285714285714,	0,	31
1961-02-28,	0.130964285714286,	0.0248424400048954,	0.189688661068195,	0.045,	0.097,	0.17,	0.106714285714286,	0.182857142857143,	0,	28
1961-03-31,	68.0474838709677,	143.28350336678,	2.10563999160462,	50.28,	0.094,	601,	0.103142857142857,	276.028571428571,	0,	31
1961-04-30,	0.591333333333333,	0.633608893470615,	1.07149192807883,	0.46,	0.23,	3.36,	0.23,	52.8085714285714,	0,	30
1961-05-31,	0.249032258064516,	0.0749824352191755,	0.301095270957829,	0.04,	0.16,	0.5,	0.21,	0.327142857142857,	0,	31
1961-06-30,	0.1102,	0.0584355819803252,	0.530268439022915,	0.034,	0.072,	0.35,	0.078,	0.238571428571429,	0,	30
1961-07-31,	0.0828888888888889,	0.00617341972581738,	0.0744782540648209,	0,	0.072,	0.086,	0.08,	0.086,	22,	9
1961-08-31,	0.0462142857142857,	0.0084959589618429,	0.183838370117157,	0,	0.034,	0.059,	0.0408571428571429,	0.0515714285714286,	17,	14
1961-09-30,	0.0889,	0.0682448378614591,	0.767658468632836,	0.04,	0.046,	0.32,	0.046,	0.149714285714286,	10,	20
1961-10-31,	0.0755,	0.00626099033699941,	0.082927024331118,	0.00349999999999999,	0.072,	0.086,	0.072,	0.0868571428571429,	15,	16
1961-11-30,	0.110636363636364,	0.0278645455809511,	0.251857026615006,	0.03025,	0.068,	0.18,	0.0885714285714286,	0.129142857142857,	8,	22
1961-12-31,	0.286645161290323,	0.231627797466409,	0.808064564647612,	0.23,	0.035,	0.84,	0.0494285714285714,	0.645714285714286,	0,	31
1962-01-31,	0.0824193548387097,	0.0224689032421083,	0.272616829943389,	0.0225,	0.03,	0.11,	0.0471428571428571,	0.106857142857143,	0,	31
1962-02-28,	0.105892857142857,	0.0120318690574604,	0.113623046748361,	0.017,	0.085,	0.13,	0.0915714285714286,	0.121428571428571,	0,	28
1962-03-31,	16.9748387096774,	20.1638293107514,	1.18786573796757,	32.28,	0.12,	57,	0.122857142857143,	46.1714285714286,	0,	31
1962-04-30,	10.7509090909091,	13.2953138572495,	1.23666880119858,	23.71,	0.13,	41.4,	0.155714285714286,	46.1571428571429,	8,	22
1962-05-31,	0.2,	0.153231850475024,	0.766159252375118,	0.0725,	0.11,	0.75,	0.12,	0.381428571428571,	5,	26
1962-06-30,	0.0966,	0.00362557962072369,	0.0375318801317152,	0.00475,	0.092,	0.11,	0.0927142857142857,	0.115714285714286,	0,	30
1962-07-31,	0.0869032258064516,	0.00286769173970608,	0.0329986800040417,	0.00449999999999999,	0.082,	0.092,	0.0831428571428571,	0.0924285714285714,	0,	31
1962-08-31,	0.0841612903225806,	0.00198488915212829,	0.0235843479172008,	0.00399999999999999,	0.081,	0.087,	0.0815714285714286,	0.0865714285714286,	0,	31
1962-09-30,	0.0832,	0.00103279555898865,	0.0124134081609212,	0.00175,	0.082,	0.085,	0.0827142857142857,	0.0857142857142857,	20,	10
1962-10-31,	NA,	NA,	NA,	NA,	NA,	NA,	NA,	NA,	31,	0
1962-11-30,	NA,	NA,	NA,	NA,	NA,	NA,	NA,	NA,	30,	0
1962-12-31,	NA,	NA,	NA,	NA,	NA,	NA,	NA,	NA,	31,	0
1963-01-31,	NA,	NA,	NA,	NA,	NA,	NA,	NA,	NA,	31,	0
1963-02-28,	NA,	NA,	NA,	NA,	NA,	NA,	NA,	NA,	28,	0
1963-03-31,	NA,	NA,	NA,	NA,	NA,	NA,	NA,	NA,	31,	0
1963-04-30,	13.7815789473684,	13.5973548339202,	0.986632582946279,	21.445,	0.2,	37.4,	2.96,	29.5857142857143,	11,	19
1963-05-31,	0.362166666666667,	0.600700302098456,	1.65862945816417,	0.37075,	0.045,	2.6,	0.085,	2.15428571428571,	13,	18
1963-06-30,	0.489294117647059,	0.882690331083464,	1.80400764948532,	0.65,	0.043,	3.61,	0.0492857142857143,	1.11314285714286,	13,	17
1963-07-31,	0.754322580645161,	1.197234184474,	1.58716471598931,	0.335,	0.07,	5.63,	0.183428571428571,	1.37285714285714,	0,	31
1963-08-31,	0.0489354838709677,	0.00800389690034784,	0.16356018715279,	0.0125,	0.041,	0.068,	0.041,	0.103142857142857,	0,	31
1963-09-30,	0.0369333333333333,	0.00586005374421237,	0.158665715096003,	0.0095,	0.028,	0.048,	0.0312857142857143,	0.0455714285714286,	0,	30
1963-10-31,	0.0669655172413793,	0.0172595372364314,	0.257737682727349,	0.014,	0.049,	0.12,	0.0464285714285714,	0.0897142857142857,	2,	29
1963-11-30,	0.145,	0.0187082869338697,	0.129022668509446,	0.02,	0.1,	0.17,	0.14,	0.152857142857143,	16,	14
1963-12-31,	0.188095238095238,	0.0353014231468149,	0.18767845217294,	0.07,	0.15,	0.23,	0.15,	0.225714285714286,	10,	21
1964-01-31,	0.284838709677419,	0.0554298937242312,	0.19460098589481,	0.085,	0.18,	0.36,	0.207142857142857,	0.352857142857143,	0,	31
1964-02-29,	0.141666666666667,	0.0146680440124618,	0.103539134205612,	0.0225,	0.13,	0.17,	0.135714285714286,	0.197142857142857,	17,	12
1964-03-31,	0.1315,	0.0172520021721355,	0.131193932867951,	0.02,	0.11,	0.17,	0.12,	0.15,	11,	20
1964-04-30,	50.7406666666667,	63.5944751955883,	1.25332360359715,	93.5975,	0.21,	207,	0.161428571428571,	149.571428571429,	0,	30
1964-05-31,	0.336875,	0.0976195847836556,	0.289779843513635,	0.17,	0.24,	0.5,	0.36,	2.48857142857143,	15,	16
1964-06-30,	0.777882352941176,	2.29521251418994,	2.95059080015344,	0.12,	0.091,	9.64,	0.103428571428571,	1.69142857142857,	13,	17
1964-07-31,	0.360354838709677,	0.898201000088031,	2.49254596748089,	0.209,	0.062,	5.13,	0.0702857142857143,	1.03571428571429,	0,	31
1964-08-31,	0.0563870967741936,	0.01903799257512,	0.337630303105674,	0.0385,	0.035,	0.083,	0.0392857142857143,	0.183285714285714,	0,	31
1964-09-30,	0.0472857142857143,	0.0126716782065924,	0.267981110109205,	0.021,	0.035,	0.064,	0.0392857142857143,	0.0434285714285714,	23,	7
1964-10-31,	0.145483870967742,	0.104657495660127,	0.719375247331249,	0.106,	0.04,	0.37,	0.0538571428571429,	0.314285714285714,	0,	31
1964-11-30,	0.142866666666667,	0.104059907590849,	0.728370795082939,	0.21125,	0.044,	0.3,	0.0467142857142857,	0.292857142857143,	0,	30
1964-12-31,	0.107705882352941,	0.0278090918268701,	0.258194735694589,	0.03,	0.073,	0.17,	0.0954285714285714,	0.267142857142857,	14,	17
1965-01-31,	0.282903225806452,	0.413579444592266,	1.46191137769216,	0.075,	0.1,	2.25,	0.0904285714285714,	0.662857142857143,	0,	31
1965-02-28,	0.118125,	0.0548207685705579,	0.464091162502077,	0.07375,	0.061,	0.22,	0.0811428571428571,	0.171428571428571,	12,	16
1965-03-31,	5.41225806451613,	11.7172712152268,	2.16495057618328,	1,	0.1,	38.6,	0.0867142857142857,	23.0914285714286,	0,	31
1965-04-30,	2.706,	5.61542064012281,	2.07517392465736,	1.495,	0.1,	22.1,	0.161428571428571,	27.4714285714286,	0,	30
1965-05-31,	0.06575,	0.0119906762023446,	0.182367698894975,	0.014,	0.054,	0.096,	0.0561428571428571,	0.155142857142857,	11,	20
1965-06-30,	0.136266666666667,	0.0274464159249698,	0.201416946611814,	0.0175,	0.07,	0.18,	0.0625714285714286,	0.17,	0,	30
1965-07-31,	0.0643548387096774,	0.0273380667288877,	0.42480203939625,	0.0435,	0.04,	0.12,	0.0401428571428571,	0.13,	0,	31
1965-08-31,	0.0487,	0.00210336348048417,	0.0431902152050138,	0.00475,	0.046,	0.052,	0.0427142857142857,	0.051,	1,	30
1965-09-30,	0.0464761904761905,	0.0246933575028165,	0.531311995449946,	0.018,	0.015,	0.12,	0.0247142857142857,	0.0657142857142857,	9,	21
1965-10-31,	0.047,	0.00613731754650732,	0.130581224393773,	0.0115,	0.038,	0.055,	0.038,	0.0544285714285714,	0,	31
1965-11-30,	0.0677,	0.0146385179200817,	0.21622626174419,	0.0225,	0.046,	0.093,	0.0461428571428571,	0.087,	0,	30
1965-12-31,	0.111806451612903,	0.0193242841261778,	0.172836932461486,	0.0225,	0.094,	0.16,	0.0888571428571429,	0.142857142857143,	0,	31
1966-01-31,	0.0721935483870968,	0.0341237154628456,	0.472669874597057,	0.041,	0.038,	0.16,	0.0392857142857143,	0.151428571428571,	0,	31
1966-02-28,	0.0879642857142857,	0.0359366542918664,	0.408536873801161,	0.0145,	0.04,	0.19,	0.0632857142857143,	0.123428571428571,	0,	28
1966-03-31,	7.92483870967742,	8.26274727152648,	1.04263917213058,	11.67,	0.18,	28.1,	0.139142857142857,	19.19,	0,	31
1966-04-30,	1.04196666666667,	2.31071682389467,	2.21764946789213,	0.653,	0.05,	10.5,	0.0578571428571429,	10.8085714285714,	0,	30
1966-05-31,	0.0362380952380952,	0.00975143457089654,	0.269093463848656,	0.008,	0.011,	0.046,	0.0252857142857143,	0.0558571428571429,	10,	21
1966-06-30,	0.0218666666666667,	0.00685682812632948,	0.313574456996775,	0.00975,	0.011,	0.031,	0.011,	0.0297142857142857,	0,	30
1966-07-31,	0.01675,	0.00346008991533778,	0.206572532258972,	0.00225,	0.013,	0.025,	0.0134285714285714,	0.0217142857142857,	3,	28
1966-08-31,	0.0164444444444444,	0.00457900865487694,	0.278453229012787,	0.00375,	0.007,	0.026,	0.0122857142857143,	0.02,	13,	18
1966-09-30,	0.018,	0,	0,	0,	0.018,	0.018,	0.0174285714285714,	0.0178571428571429,	26,	4
1966-10-31,	0.02275,	0.00623128777769259,	0.273902759459015,	0.013,	0.017,	0.031,	0.017,	0.0302857142857143,	11,	20
1966-11-30,	0.0304444444444444,	0.00052704627669473,	0.0173117390155203,	0.001,	0.03,	0.031,	0.0302857142857143,	0.0305714285714286,	21,	9
1966-12-31,	0.0383333333333333,	0.00317184584439504,	0.0827438046363923,	0.0025,	0.03,	0.041,	0.0382857142857143,	0.0401428571428571,	19,	12
1967-01-31,	0.0332258064516129,	0.00199515542284062,	0.0600483670952031,	0.0035,	0.03,	0.037,	0.0302857142857143,	0.0384285714285714,	0,	31
1967-02-28,	0.0357142857142857,	0.00453674008314457,	0.127028722328048,	0.0045,	0.031,	0.046,	0.0312857142857143,	0.0421428571428571,	0,	28
1967-03-31,	0.0499677419354839,	0.0236509110056642,	0.47332359017146,	0.008,	0.036,	0.11,	0.0365714285714286,	0.0855714285714286,	0,	31
1967-04-30,	0.313,	0.139732503068517,	0.446429722263633,	0.145,	0.11,	0.77,	0.0957142857142857,	0.5,	0,	30
1967-05-31,	0.173258064516129,	0.139756685646146,	0.806638848451039,	0.272,	0.047,	0.39,	0.047,	0.411428571428571,	0,	31
1967-06-30,	0.0427333333333333,	0.0311978484374554,	0.730058855790688,	0.02575,	0.015,	0.14,	0.0185714285714286,	0.214285714285714,	0,	30
1967-07-31,	0.0246129032258065,	0.00457294521692413,	0.185794628734794,	0.0075,	0.015,	0.029,	0.0177142857142857,	0.0288571428571429,	0,	31
1967-08-31,	0.0332631578947368,	0.00276570475774576,	0.0831461873372935,	0.0045,	0.029,	0.037,	0.0281428571428571,	0.0361428571428571,	12,	19
1967-09-30,	0.0411,	0.021621110373732,	0.526061079652848,	0.0045,	0.029,	0.12,	0.03,	0.0685714285714286,	0,	30
1967-10-31,	0.0330625,	0.000928708781050336,	0.0280894905421652,	0.002,	0.032,	0.035,	0.0322857142857143,	0.0347142857142857,	15,	16
1967-11-30,	0.05125,	0.00796241169495775,	0.155364130633322,	0.009,	0.045,	0.072,	0.045,	0.0541428571428571,	14,	16
1967-12-31,	0.048375,	0.00663202048037956,	0.137096030602161,	0.0055,	0.042,	0.066,	0.0424285714285714,	0.0528571428571429,	7,	24
1968-01-31,	0.0414516129032258,	0.00608187860054999,	0.146722363126109,	0.009,	0.029,	0.048,	0.0321428571428571,	0.0515714285714286,	0,	31
1968-02-29,	0.04312,	0.00471981638060917,	0.109457708270157,	0.008,	0.038,	0.051,	0.0382857142857143,	0.0497142857142857,	4,	25
1968-03-31,	15.9964761904762,	24.6693181555937,	1.54217202975497,	35.03,	0.051,	84.6,	0.129428571428571,	46.1,	10,	21
1968-04-30,	32.8713333333333,	66.4197544738598,	2.02059812421745,	23.23,	0.14,	261,	0.505714285714286,	134.628571428571,	0,	30
1968-05-31,	0.428064516129032,	0.0910830886183493,	0.212778880721087,	0.08,	0.26,	0.58,	0.212857142857143,	0.542857142857143,	0,	31
1968-06-30,	0.340666666666667,	0.0701197661804102,	0.205831016185157,	0.105,	0.22,	0.43,	0.231428571428571,	0.411428571428571,	0,	30
1968-07-31,	0.133903225806452,	0.0632151642349153,	0.472095902501174,	0.121,	0.072,	0.23,	0.0721428571428571,	0.225714285714286,	0,	31
1968-08-31,	0.0855483870967742,	0.00685487033515791,	0.0801285748076528,	0.00799999999999999,	0.078,	0.1,	0.0784285714285714,	0.0961428571428571,	0,	31
1968-09-30,	0.0823333333333333,	0.0181228248793944,	0.220115281935964,	0.022,	0.057,	0.15,	0.0605714285714286,	0.101142857142857,	0,	30
1968-10-31,	0.124967741935484,	0.0392772061726796,	0.314298758738531,	0.04,	0.099,	0.23,	0.0991428571428571,	0.188571428571429,	0,	31
1968-11-30,	0.132,	0.018643663987976,	0.141239878696788,	0.0375,	0.11,	0.16,	0.11,	0.157142857142857,	0,	30
1968-12-31,	0.138235294117647,	0.0155061657565817,	0.112172262919953,	0.02,	0.11,	0.16,	0.11,	0.151428571428571,	14,	17
1969-01-31,	0.0900689655172414,	0.0163661912719108,	0.181707330354293,	0.023,	0.074,	0.12,	0.075,	0.115714285714286,	2,	29
1969-02-28,	0.0847272727272727,	0.00272363393615622,	0.0321458940962644,	0.00199999999999999,	0.081,	0.09,	0.0831428571428571,	0.086,	17,	11
1969-03-31,	0.0993870967741936,	0.0106165826873335,	0.106820533368172,	0.019,	0.09,	0.12,	0.0868571428571429,	0.11,	0,	31
1969-04-30,	0.750666666666667,	1.71406480444765,	2.2833900592109,	0.585,	0.078,	9.13,	0.108571428571429,	2.15,	3,	27
1969-05-31,	0.0613571428571429,	0.00418067243132274,	0.0681366868900097,	0.00675,	0.054,	0.065,	0.0578571428571429,	0.0648571428571429,	17,	14
1969-06-30,	0.0605,	0.0120594790303213,	0.199330231906137,	0.02175,	0.045,	0.078,	0.0457142857142857,	0.0754285714285714,	0,	30
1969-07-31,	0.0712258064516129,	0.00967370896612516,	0.135817471897591,	0.014,	0.055,	0.089,	0.0607142857142857,	0.0837142857142857,	0,	31
1969-08-31,	0.0633870967741935,	0.00926526639068314,	0.146169597003144,	0.0105,	0.035,	0.08,	0.0567142857142857,	0.0754285714285714,	0,	31
1969-09-30,	0.0587647058823529,	0.00500661327352016,	0.0851976232731158,	0.009,	0.052,	0.065,	0.0537142857142857,	0.0638571428571429,	13,	17
1969-10-31,	0.066741935483871,	0.0198073517360524,	0.296775207258398,	0.019,	0.024,	0.12,	0.049,	0.0958571428571429,	0,	31
1969-11-30,	0.0230666666666667,	0.0187799110080763,	0.814157991679607,	0.005,	0.013,	0.084,	0.0131428571428571,	0.0574285714285714,	0,	30
1969-12-31,	0.0483548387096774,	0.0536889488238171,	1.11031181690349,	0.0775,	0.005,	0.18,	0.00571428571428571,	0.123142857142857,	0,	31
1970-01-31,	0.0778709677419355,	0.010121732182072,	0.129980819239532,	0.0185,	0.066,	0.096,	0.0691428571428571,	0.0938571428571429,	0,	31
1970-02-28,	0.0621428571428571,	0.00232082816818553,	0.0373466601776982,	0.003,	0.059,	0.068,	0.06,	0.0701428571428571,	0,	28
1970-03-31,	28.2062580645161,	55.1882725350038,	1.95659673852419,	4.5675,	0.059,	165,	0.0597142857142857,	123.371428571429,	0,	31
1970-04-30,	29.0512,	63.157989318741,	2.17402342480658,	20.8735,	0.016,	246,	0.0217142857142857,	169.571428571429,	0,	30
1970-05-31,	0.2436,	0.34991541835135,	1.43643439388896,	0.344,	0.016,	0.81,	0.016,	0.178571428571429,	26,	5
1970-06-30,	0.0655714285714286,	0.00650274667242345,	0.0991704285554775,	0.01,	0.057,	0.074,	0.0655714285714286,	0.0655714285714286,	23,	7
1970-07-31,	0.048258064516129,	0.00356807830571288,	0.0739374515221253,	0.006,	0.044,	0.055,	0.044,	0.0628571428571429,	0,	31
1970-08-31,	0.0626451612903226,	0.00760503511759052,	0.121398603833834,	0.0095,	0.051,	0.085,	0.0501428571428571,	0.0711428571428571,	0,	31
1970-09-30,	0.0657666666666667,	0.00266112930828292,	0.0404631927260454,	0.00375,	0.061,	0.07,	0.0618571428571429,	0.0675714285714286,	0,	30
1970-10-31,	0.0706666666666667,	0.00108465228909328,	0.0153488531475464,	0.00174999999999999,	0.069,	0.072,	0.0684285714285714,	0.0717142857142857,	13,	18
1970-11-30,	0.0756333333333333,	0.00854393648002563,	0.112965224504526,	0.00975000000000001,	0.061,	0.096,	0.0661428571428571,	0.0868571428571429,	0,	30
1970-12-31,	0.064,	0.00383840244546261,	0.0599750382103533,	0.00600000000000001,	0.057,	0.07,	0.0588571428571429,	0.069,	0,	31
1971-01-31,	0.788548387096774,	1.87389593874562,	2.37638674989217,	0.395,	0.057,	10.1,	0.0571428571428571,	2.68428571428571,	0,	31
1971-02-28,	0.101892857142857,	0.0342034645047396,	0.33568068914571,	0.067,	0.056,	0.15,	0.0704285714285714,	0.154285714285714,	0,	28
1971-03-31,	11.785935483871,	33.2791167239912,	2.8236296363181,	2.797,	0.05,	152,	0.054,	51.1785714285714,	0,	31
1971-04-30,	14.3824137931034,	29.9511309892789,	2.08248291421297,	5.36,	0.16,	124,	0.162857142857143,	90.4571428571429,	1,	29
1971-05-31,	0.0876666666666667,	0.0038455011101128,	0.0438650316742905,	0.00574999999999999,	0.082,	0.094,	0.085,	0.0902857142857143,	19,	12
1971-06-30,	0.08352,	0.0038742741255621,	0.0463873817715769,	0.002,	0.081,	0.099,	0.0815714285714286,	0.0872857142857143,	5,	25
1971-07-31,	0.0548947368421053,	0.0171460871365326,	0.312344827990526,	0.0225,	0.036,	0.092,	0.0401428571428571,	0.074,	12,	19
1971-08-31,	0.0330645161290323,	0.00613153316265444,	0.185441490772964,	0.0095,	0.025,	0.046,	0.0262857142857143,	0.0422857142857143,	0,	31
1971-09-30,	0.0545,	0.00587660469647404,	0.107827609109615,	0.01075,	0.046,	0.063,	0.0432857142857143,	0.062,	0,	30
1971-10-31,	0.0548709677419355,	0.00361240395935884,	0.0658345224809665,	0.007,	0.051,	0.06,	0.051,	0.0605714285714286,	0,	31
1971-11-30,	0.0809333333333333,	0.0172065210840568,	0.212601166606962,	0.03275,	0.06,	0.11,	0.0588571428571429,	0.101571428571429,	0,	30
1971-12-31,	0.102181818181818,	0.00722243977916302,	0.0706822398316666,	0.0105,	0.087,	0.11,	0.0977142857142857,	0.11,	20,	11
1972-01-31,	0.0903333333333333,	0.00837578928542536,	0.0927209145988047,	0.0175,	0.08,	0.1,	0.0807142857142857,	0.1,	4,	27
1972-02-29,	0.203444444444444,	0.148276459685049,	0.728830222373262,	0.14375,	0.088,	0.68,	0.0858571428571429,	0.33,	11,	18
1972-03-31,	0.386774193548387,	0.281014674548907,	0.726560042620192,	0.36,	0.14,	1.08,	0.151428571428571,	0.828571428571429,	0,	31
1972-04-30,	0.313157894736842,	0.22740205783245,	0.726157831733873,	0.245,	0.14,	0.8,	0.144285714285714,	0.57,	11,	19
1972-05-31,	0.121709677419355,	0.0742519106593166,	0.610074007537454,	0.041,	0.067,	0.4,	0.0721428571428571,	0.192857142857143,	0,	31
1972-06-30,	0.0496333333333333,	0.0195580186101257,	0.394050072735911,	0.01175,	0.012,	0.078,	0.021,	0.0764285714285714,	0,	30
1972-07-31,	0.0599677419354839,	0.0575456247227466,	0.959609664553601,	0.1065,	0.018,	0.16,	0.015,	0.152857142857143,	0,	31
1972-08-31,	0.0419310344827586,	0.016044427235654,	0.382638478481881,	0.034,	0.027,	0.064,	0.027,	0.130571428571429,	2,	29
1972-09-30,	0.0315294117647059,	0.0176072344757021,	0.558438406878612,	0.013,	0,	0.058,	0.0174285714285714,	0.038,	13,	17
1972-10-31,	0.0581428571428571,	0.00101418510567422,	0.0174429870754779,	0.00199999999999999,	0.057,	0.06,	0.057,	0.0587142857142857,	10,	21
1972-11-30,	0.0751666666666667,	0.0169910388822712,	0.226044863178774,	0.021,	0.06,	0.12,	0.0591428571428571,	0.1,	0,	30
1972-12-31,	0.076258064516129,	0.00226521142406155,	0.0297045491310947,	0.002,	0.073,	0.083,	0.0742857142857143,	0.0988571428571429,	0,	31
1973-01-31,	0.0692903225806452,	0.0137360682108263,	0.198239345686972,	0.0225,	0.043,	0.088,	0.0512857142857143,	0.0818571428571429,	0,	31
1973-02-28,	0.0875357142857143,	0.0169650668157686,	0.193807372844357,	0.0295,	0.066,	0.11,	0.0672857142857143,	0.108571428571429,	0,	28
1973-03-31,	5.35245161290323,	12.2878444891383,	2.29574134953707,	0.0675,	0.084,	36.7,	0.0858571428571429,	23.3128571428571,	0,	31
1973-04-30,	2.73,	4.07129790934865,	1.49131791551233,	4.54,	0.2,	13.7,	0.204285714285714,	26.58,	11,	19
1973-05-31,	0.152483870967742,	0.038608177862332,	0.253195158394815,	0.055,	0.088,	0.22,	0.0967142857142857,	0.205714285714286,	0,	31
1973-06-30,	0.1256,	0.0696857972963472,	0.554823226881745,	0.132,	0.046,	0.23,	0.0474285714285714,	0.212857142857143,	0,	30
1973-07-31,	0.0968064516129032,	0.0619631177152122,	0.640072192326418,	0.098,	0.048,	0.22,	0.0482857142857143,	0.22,	0,	31
1973-08-31,	0.0816774193548387,	0.0110646195800675,	0.135467301335739,	0.0165,	0.062,	0.1,	0.0667142857142857,	0.0958571428571429,	0,	31
1973-09-30,	0.119566666666667,	0.0391352062447113,	0.327308666668899,	0.0835,	0.062,	0.16,	0.063,	0.16,	0,	30
1973-10-31,	0.1305,	0.0323590059049702,	0.247961731072568,	0.0125,	0.11,	0.2,	0.11,	0.14,	11,	20
1973-11-30,	0.222857142857143,	0.00611249845502127,	0.0274278776827878,	0.01,	0.21,	0.23,	0.19,	0.227142857142857,	16,	14
1973-12-31,	0.193333333333333,	0.00577350269189626,	0.0298629449580841,	0.005,	0.19,	0.2,	NA,	NA,	28,	3
1974-01-31,	0.134193548387097,	0.0201286186888862,	0.149996918114297,	0.03,	0.11,	0.18,	0.11,	0.178571428571429,	0,	31
1974-02-28,	0.176071428571429,	0.0119688749786255,	0.0679773832457434,	0.0125,	0.16,	0.2,	0.151428571428571,	0.192857142857143,	0,	28
1974-03-31,	25.8570967741935,	43.5562875058277,	1.68450030899442,	40.09,	0.12,	158,	0.137142857142857,	95.5428571428571,	0,	31
1974-04-30,	5.63906666666667,	11.4055308964504,	2.02259195903289,	3.0925,	0.001,	46.3,	0.181714285714286,	92.8714285714286,	0,	30
1974-05-31,	0.172769230769231,	0.0796549095497862,	0.461048007189323,	0.08,	0.001,	0.3,	0.0845714285714286,	0.3,	5,	26
1974-06-30,	0.162727272727273,	0.0088273482950475,	0.0542462744388394,	0.0175,	0.15,	0.17,	0.151428571428571,	0.17,	8,	22
1974-07-31,	0.134761904761905,	0.0248231842476036,	0.184200307137695,	0.02,	0.11,	0.19,	0.114285714285714,	0.174285714285714,	10,	21
1974-08-31,	0.104333333333333,	0.0140390611543379,	0.134559691575123,	0.026,	0.083,	0.12,	0.0921428571428571,	0.125714285714286,	16,	15
1974-09-30,	0.0713,	0.00849807280383678,	0.119187556856056,	0.01175,	0.058,	0.09,	0.0622857142857143,	0.0894285714285714,	0,	30
1974-10-31,	0.0699032258064516,	0.00816641430375934,	0.116824570104541,	0.0165,	0.058,	0.079,	0.0582857142857143,	0.0784285714285714,	0,	31
1974-11-30,	0.0898125,	0.00928237577347524,	0.103352826983719,	0.01775,	0.076,	0.1,	0.0768571428571429,	0.0988571428571429,	14,	16
1974-12-31,	0.324666666666667,	0.374468512249918,	1.15339377489708,	0.17,	0.11,	1.52,	0.111428571428571,	0.545714285714286,	16,	15
1975-01-31,	0.146666666666667,	0.047169905660283,	0.321612993138293,	0.03,	0.12,	0.25,	0.24,	0.294285714285714,	22,	9
1975-02-28,	0.141538461538462,	0.0114354374979373,	0.0807938518876006,	0.00999999999999998,	0.12,	0.15,	0.137142857142857,	0.15,	15,	13
1975-03-31,	0.465666666666667,	0.664689107173724,	1.42739249929934,	0.1525,	0.13,	3.06,	0.134285714285714,	1.42142857142857,	1,	30
1975-04-30,	0.0623333333333333,	0.0285105344515434,	0.457388253233317,	0.03325,	0.04,	0.14,	0.0407142857142857,	0.365714285714286,	0,	30
1975-05-31,	0.0362903225806452,	0.00254549992977276,	0.070142664731516,	0.004,	0.032,	0.04,	0.0327142857142857,	0.0404285714285714,	0,	31
1975-06-30,	0.0216333333333333,	0.00641379619330045,	0.296477481970745,	0.0105,	0.011,	0.031,	0.013,	0.0322857142857143,	0,	30
1975-07-31,	0.0187096774193548,	0.00762099533476259,	0.407329060995931,	0.0045,	0.011,	0.052,	0.0115714285714286,	0.0275714285714286,	0,	31
1975-08-31,	0.0335161290322581,	0.012593307661193,	0.375738727138579,	0.0075,	0.026,	0.068,	0.026,	0.0558571428571429,	0,	31
1975-09-30,	0.0292857142857143,	0.00120438758319299,	0.0411254296700045,	0.00225,	0.028,	0.031,	0.0271428571428571,	0.0288571428571429,	16,	14
1975-10-31,	0.033,	0,	0,	0,	0.033,	0.033,	0.033,	0.033,	24,	7
1975-11-30,	0.032,	0,	0,	0,	0.032,	0.032,	0.032,	0.032,	22,	8
1975-12-31,	0.0319444444444444,	0.000639137490706143,	0.0200077823177575,	0,	0.031,	0.033,	0.0314285714285714,	0.0324285714285714,	13,	18
1976-01-31,	0.0550322580645161,	0.00676502708034857,	0.122928393605396,	0.0025,	0.034,	0.061,	0.0327142857142857,	0.0601428571428571,	0,	31
1976-02-29,	0.209137931034483,	0.300167539424465,	1.43526111183998,	0.082,	0.058,	1.12,	0.058,	0.634285714285714,	0,	29
1976-03-31,	0.102451612903226,	0.0103274350144891,	0.100803049574673,	0.0155,	0.092,	0.13,	0.0925714285714286,	0.127142857142857,	0,	31
1976-04-30,	0.434133333333333,	0.417253477358567,	0.961118267871392,	0.25,	0,	1.87,	0.0977142857142857,	0.994285714285714,	0,	30
1976-05-31,	0.188387096774194,	0.141846319989712,	0.75295135610977,	0.187,	0.07,	0.66,	0.0751428571428572,	0.398571428571429,	0,	31
1976-06-30,	0.184333333333333,	0.0397997862871869,	0.215912041340978,	0.0575,	0.11,	0.27,	0.0808571428571429,	0.232857142857143,	0,	30
1976-07-31,	0.207096774193548,	0.0656857949324965,	0.317174399206759,	0.055,	0.12,	0.44,	0.15,	0.24,	0,	31
1976-08-31,	0.214838709677419,	0.106391446013983,	0.495215439404425,	0.095,	0.11,	0.5,	0.121428571428571,	0.411428571428571,	0,	31
1976-09-30,	0.1083,	0.0275670342857251,	0.254543252869115,	0.042,	0.045,	0.15,	0.0744285714285714,	0.137142857142857,	0,	30
1976-10-31,	0.2316,	0.260261089067802,	1.12375254347065,	0.19725,	0.001,	1.12,	0.0615714285714286,	0.615714285714286,	1,	30
1976-11-30,	0.264333333333333,	0.0150134039728029,	0.0567972407546139,	0.01,	0.24,	0.3,	0.244285714285714,	0.498571428571429,	0,	30
1976-12-31,	0.1852,	0.0275560035805872,	0.148790516093883,	0.05,	0.15,	0.23,	0.155714285714286,	0.241428571428571,	6,	25
1977-01-31,	0.15,	0,	0,	0,	0.15,	0.15,	NA,	NA,	25,	6
1977-02-28,	0.1475,	0.0359655184658656,	0.243834023497394,	0.0425,	0.11,	0.24,	0.114285714285714,	0.201428571428571,	0,	28
1977-03-31,	2.67693548387097,	2.64618236881592,	0.988511820609672,	4.485,	0,	8.15,	0.234285714285714,	6.28428571428571,	0,	31
1977-04-30,	0.0836,	0.0193953424910422,	0.232001704438304,	0.0265,	0.03,	0.11,	0.0411428571428571,	1.74642857142857,	0,	30
1977-05-31,	0.0652777777777778,	0.00267462049106819,	0.0409729096504063,	0.004,	0.061,	0.069,	0.0641428571428571,	0.0711428571428571,	13,	18
1977-06-30,	0.0474333333333333,	0.0108299817980977,	0.228320066017519,	0.017,	0.033,	0.068,	0.035,	0.0681428571428571,	0,	30
1977-07-31,	0.03245,	0.00143178210632764,	0.0441227151410674,	0.003,	0.031,	0.035,	0.0311428571428571,	0.0344285714285714,	11,	20
1977-08-31,	0.0402105263157895,	0.00271986411769291,	0.0676405997855567,	0.0035,	0.035,	0.044,	0.0344285714285714,	0.0421428571428571,	12,	19
1977-09-30,	0.0247777777777778,	0.00479651289456334,	0.193581237897175,	0.00425,	0.021,	0.037,	0.022,	0.0385714285714286,	12,	18
1977-10-31,	0.0197894736842105,	0.00423712359676574,	0.214109968985503,	0.005,	0.01,	0.025,	0.0171428571428571,	0.022,	12,	19
1977-11-30,	0.0332666666666667,	0.0132064073616672,	0.39698619323649,	0.024,	0.012,	0.05,	0.0125714285714286,	0.0478571428571429,	0,	30
1977-12-31,	0.0394838709677419,	0.0120688882883275,	0.305666288348164,	0.0245,	0.023,	0.053,	0.0245714285714286,	0.0527142857142857,	0,	31
1978-01-31,	0.0249032258064516,	0.00409353016934184,	0.164377506799996,	0.007,	0.019,	0.032,	0.0202857142857143,	0.0304285714285714,	0,	31
1978-02-28,	0.0151428571428571,	0.00676983661772482,	0.447064682302582,	0.0095,	0.007,	0.029,	0.008,	0.028,	0,	28
1978-03-31,	16.9786451612903,	38.1214343071789,	2.2452577308166,	19.076,	0.018,	192,	0.0125714285714286,	65.1285714285714,	0,	31
1978-04-30,	1.1246,	2.67821243266526,	2.38148002193247,	0.4875,	0.007,	12.8,	0.150714285714286,	63.6,	0,	30
1978-05-31,	0.331290322580645,	0.168913033550481,	0.509864074008267,	0.175,	0.15,	0.76,	0.187142857142857,	0.605714285714286,	0,	31
1978-06-30,	0.232666666666667,	0.072203416354999,	0.310329869720626,	0.12,	0.11,	0.37,	0.138571428571429,	0.32,	0,	30
1978-07-31,	0.168322580645161,	0.0696861474023708,	0.414003558733901,	0.12,	0.086,	0.29,	0.0988571428571429,	0.27,	0,	31
1978-08-31,	0.0378064516129032,	0.0217062500290258,	0.574141425682422,	0.0245,	0.005,	0.078,	0.0161428571428571,	0.110571428571429,	0,	31
1978-09-30,	0.02425,	0.0098918060073455,	0.407909526076103,	0.0145,	0.01,	0.041,	0.013,	0.0335714285714286,	6,	24
1978-10-31,	0.05355,	0.0238404234331877,	0.445199317146362,	0.005,	0.041,	0.14,	0.0422857142857143,	0.073,	11,	20
1978-11-30,	0.0497333333333333,	0.0104844556140893,	0.210813450685443,	0.019,	0.034,	0.063,	0.04,	0.079,	15,	15
1978-12-31,	0.0389310344827586,	0.00383527829575786,	0.098514677216101,	0.005,	0.034,	0.046,	0.0357142857142857,	0.0448571428571429,	2,	29
1979-01-31,	0.0357142857142857,	0.0021480888515808,	0.0601464878442623,	0.003,	0.032,	0.038,	0.0341428571428571,	0.0381428571428571,	10,	21
1979-02-28,	0.383814814814815,	0.757073161642765,	1.97249593403017,	0.0515,	0.03,	3,	0.0307142857142857,	1.28014285714286,	1,	27
1979-03-31,	2.71818181818182,	3.66176410540553,	1.34713729630304,	4.23,	0.3,	10.3,	0.355714285714286,	4.08428571428571,	20,	11
1979-04-30,	15.4426666666667,	13.7322773391576,	0.889242618232444,	20.875,	0.1,	46.5,	0.738571428571429,	35.3428571428571,	0,	30
1979-05-31,	0.299354838709677,	0.179107704726718,	0.598312375703475,	0.185,	0.1,	0.68,	0.102857142857143,	0.592857142857143,	0,	31
1979-06-30,	0.214166666666667,	0.210876836636661,	0.984638925929935,	0.2865,	0.008,	0.63,	0.0251428571428571,	0.551428571428571,	0,	30
1979-07-31,	0.0201612903225806,	0.0140975098845944,	0.699236490275882,	0.024,	0.001,	0.04,	0.00514285714285714,	0.0387142857142857,	0,	31
1979-08-31,	0.0240645161290323,	0.00324484703153546,	0.134839487905629,	0.003,	0.02,	0.029,	0.0212857142857143,	0.0311428571428571,	0,	31
1979-09-30,	0.0301666666666667,	0.0052330734249831,	0.173472047237009,	0.008,	0.023,	0.04,	0.0217142857142857,	0.0365714285714286,	0,	30
1979-10-31,	0.209258064516129,	0.191279545472403,	0.914084462716894,	0.339,	0.023,	0.63,	0.0285714285714286,	0.471428571428571,	0,	31
1979-11-30,	0.7409375,	1.14448855935741,	1.54464925767343,	0.1825,	0.015,	4.9,	0.297142857142857,	1.22142857142857,	14,	16
1979-12-31,	0.196258064516129,	0.0855312682558979,	0.435810209719401,	0.03,	0.01,	0.3,	0.0327142857142857,	1.10214285714286,	0,	31
1980-01-31,	0.17,	0.0414445057736671,	0.243791210433336,	0.0575,	0.13,	0.27,	0.134285714285714,	0.232857142857143,	13,	18
1980-02-29,	0.0962857142857143,	0.00616355562880859,	0.0640131890232346,	0.00725000000000001,	0.088,	0.11,	0.0895714285714286,	0.101857142857143,	1,	28
1980-03-31,	0.109354838709677,	0.0116434484785702,	0.106474012635892,	0.02,	0.095,	0.13,	0.094,	0.125714285714286,	0,	31
1980-04-30,	1.049,	1.16912094887717,	1.11450996079806,	1.2475,	0.1,	5.4,	0.102857142857143,	1.91714285714286,	0,	30
1980-05-31,	0.0780967741935484,	0.0498359674925046,	0.63813093443521,	0.016,	0.034,	0.22,	0.0401428571428571,	0.265714285714286,	0,	31
1980-06-30,	0.0673,	0.0263231247490059,	0.391131125542435,	0.0455,	0.032,	0.12,	0.0434285714285714,	0.103428571428571,	0,	30
1980-07-31,	0.0340967741935484,	0.0395275050555177,	1.15927403663297,	0.005,	0.015,	0.17,	0.0164285714285714,	0.0818571428571429,	0,	31
1980-08-31,	0.0572903225806452,	0.0599756581447213,	1.04687241130989,	0.105,	0,	0.17,	0,	0.158571428571429,	0,	31
1980-09-30,	0.0779333333333333,	0.013294887099502,	0.170593076554774,	0.01975,	0.057,	0.11,	0.0382857142857143,	0.094,	0,	30
1980-10-31,	0.0901724137931035,	0.018164071612305,	0.201437123042771,	0.033,	0.074,	0.12,	0.0758571428571429,	0.118571428571429,	2,	29
1980-11-30,	0.0776111111111111,	0.00499574982759038,	0.0643690027892819,	0.00750000000000001,	0.07,	0.085,	0.0744285714285714,	0.0828571428571429,	12,	18
1980-12-31,	0.0852857142857143,	0.0118422166522191,	0.138853461583809,	0.019,	0.071,	0.1,	0.0724285714285714,	0.0852857142857143,	24,	7
1981-01-31,	0.120666666666667,	0.0143679080456828,	0.119071061152067,	0.02,	0.1,	0.15,	0.108571428571429,	0.138571428571429,	1,	30
1981-02-28,	0.104535714285714,	0.012862469502126,	0.123043780683132,	0.01675,	0.089,	0.13,	0.0915714285714286,	0.124285714285714,	0,	28
1981-03-31,	11.7228461538462,	22.9503596097182,	1.95774637903854,	0.04675,	0.09,	80.2,	0.0901428571428571,	0.134285714285714,	5,	26
1981-04-30,	2.9726,	6.42679941044288,	2.16201285421613,	2.1625,	0.014,	30.6,	0.252571428571429,	47.6,	0,	30
1981-05-31,	0.205193548387097,	0.220615868174351,	1.07515986690849,	0.2365,	0.044,	0.68,	0.0444285714285714,	0.6,	0,	31
1981-06-30,	0.0281333333333333,	0.00770460378865973,	0.27386032424146,	0.006,	0.022,	0.052,	0.022,	0.0457142857142857,	0,	30
1981-07-31,	0.0772903225806452,	0.0315945074850963,	0.408777016710344,	0.036,	0.022,	0.13,	0.022,	0.12,	0,	31
1981-08-31,	0.0403684210526316,	0.010980844565352,	0.272015706312501,	0.018,	0.025,	0.059,	0.029,	0.0642857142857143,	12,	19
1981-09-30,	0.0419310344827586,	0.00720580636155296,	0.171849000398878,	0.007,	0.025,	0.05,	0.0302857142857143,	0.047,	1,	29
1981-10-31,	0.0538709677419355,	0.0144400875701035,	0.268049529744437,	0.0195,	0.036,	0.089,	0.037,	0.0717142857142857,	0,	31
1981-11-30,	0.100352941176471,	0.0117682898952577,	0.117269008334924,	0.00900000000000001,	0.088,	0.12,	0.0771428571428571,	0.0961428571428571,	13,	17
1981-12-31,	0.473181818181818,	0.393317832991231,	0.831219243593379,	0.6675,	0.15,	1.15,	0.162857142857143,	1.00857142857143,	9,	22
1982-01-31,	0.2375,	0.0782623792124926,	0.329525807210495,	0.1075,	0.13,	0.38,	0.194285714285714,	0.625714285714286,	11,	20
1982-02-28,	0.18375,	0.107433915949742,	0.584674372515605,	0.1075,	0.086,	0.53,	0.111,	0.335714285714286,	0,	28
1982-03-31,	0.852258064516129,	2.12424372374016,	2.49248885071707,	0.04,	0.11,	9.88,	0.106857142857143,	3.00142857142857,	0,	31
1982-04-30,	2.4727,	3.00946796936281,	1.21707767596668,	4.0125,	0.089,	10.7,	0.093,	7.03857142857143,	0,	30
1982-05-31,	0.285032258064516,	0.177251137066587,	0.62186342791582,	0.29,	0.089,	0.65,	0.0892857142857143,	0.517142857142857,	0,	31
1982-06-30,	0.107333333333333,	0.0176387765103368,	0.164336427114939,	0.02925,	0.081,	0.13,	0.0841428571428571,	0.128571428571429,	0,	30
1982-07-31,	0.062,	0.0282429932313604,	0.455532148892909,	0.0445,	0.033,	0.13,	0.0338571428571429,	0.13,	0,	31
1982-08-31,	0.111032258064516,	0.0294216290858361,	0.264982714021185,	0.019,	0.088,	0.19,	0.0805714285714286,	0.158571428571429,	0,	31
1982-09-30,	0.0882,	0.00603666955450974,	0.068442965470632,	0.00499999999999999,	0.08,	0.1,	0.0812857142857143,	0.093,	0,	30
1982-10-31,	0.11258064516129,	0.011245070604635,	0.0998845813019153,	0.02,	0.1,	0.14,	0.0961428571428571,	0.121428571428571,	0,	31
1982-11-30,	0.1195,	0.0349716634059535,	0.292649902978691,	0.07,	0.085,	0.17,	0.0885714285714286,	0.167142857142857,	0,	30
1982-12-31,	0.161290322580645,	0.0164806827293594,	0.102180232922028,	0.02,	0.14,	0.19,	0.14,	0.184285714285714,	0,	31
1983-01-31,	0.137142857142857,	0.0197845538597304,	0.144262371893867,	0.03,	0.11,	0.16,	0.127142857142857,	0.162857142857143,	10,	21
1983-02-28,	0.712857142857143,	0.599610102593573,	0.84113641646393,	1.0225,	0.12,	1.86,	0.114285714285714,	1.32571428571429,	0,	28
1983-03-31,	7.46903225806452,	19.8787942885274,	2.66149530510646,	3,	0.09,	94.7,	0.0985714285714286,	30.8671428571429,	0,	31
1983-04-30,	1.58789473684211,	2.72684102732523,	1.71726813122901,	1.64,	0,	10.2,	0.0142857142857143,	31.9157142857143,	11,	19
1983-05-31,	0.131966666666667,	0.0503508266776866,	0.381542005640464,	0.0965,	0.074,	0.21,	0.075,	0.2,	1,	30
1983-06-30,	0.0758,	0.0105549465442381,	0.139247315887046,	0.01975,	0.063,	0.093,	0.0637142857142857,	0.09,	0,	30
1983-07-31,	0.0561290322580645,	0.00717282805911249,	0.127791764271544,	0.0135,	0.047,	0.067,	0.0482857142857143,	0.0692857142857143,	0,	31
1983-08-31,	0.874645161290323,	1.06977519596057,	1.22309622611115,	1.62,	0.086,	3.05,	0.0577142857142857,	2.62142857142857,	0,	31
1983-09-30,	0.133966666666667,	0.0464590908912,	0.346795901153521,	0.0525,	0.087,	0.24,	0.0888571428571429,	0.21,	0,	30
1983-10-31,	0.204117647058824,	0.0150244898122248,	0.0736070106074414,	0.03,	0.19,	0.23,	0.192857142857143,	0.22,	14,	17
1983-11-30,	0.226111111111111,	0.0312746634700263,	0.138315464978003,	0.0375,	0.15,	0.25,	0.195714285714286,	0.248571428571429,	12,	18
1983-12-31,	0.213636363636364,	0.0334586389364618,	0.156614905660034,	0.05,	0.15,	0.25,	0.171428571428571,	0.247142857142857,	9,	22
1984-01-31,	2.06764705882353,	3.66769772713716,	1.77385096333803,	0.59,	0.17,	11,	0.202857142857143,	4.68571428571429,	14,	17
1984-02-29,	0.17,	0.0105409255338946,	0.062005444317027,	0.02,	0.16,	0.19,	0.16,	0.181428571428571,	10,	19
1984-03-31,	0.453870967741935,	0.382314682073593,	0.842342227738548,	0.0649999999999999,	0.16,	1.5,	0.162857142857143,	0.885714285714286,	0,	31
1984-04-30,	1.49866666666667,	1.39399879615377,	0.930159339070576,	1.3,	0.19,	4.7,	0.372857142857143,	3.66,	0,	30
1984-05-31,	0.155612903225806,	0.0396111747022267,	0.254549422837692,	0.065,	0.079,	0.2,	0.0962857142857143,	0.664285714285714,	0,	31
1984-06-30,	0.0899,	0.0308939788799449,	0.343648263403169,	0.04075,	0.032,	0.15,	0.0692857142857143,	0.135714285714286,	0,	30
1984-07-31,	0.0486451612903226,	0.0189605702922262,	0.389772996723483,	0.0135,	0.032,	0.1,	0.0337142857142857,	0.0795714285714286,	0,	31
1984-08-31,	0.128064516129032,	0.0238018703520976,	0.185858433479856,	0.035,	0.094,	0.17,	0.0867142857142857,	0.161428571428571,	0,	31
1984-09-30,	0.118066666666667,	0.0193994904542634,	0.164309631176709,	0.03,	0.093,	0.16,	0.0974285714285714,	0.145714285714286,	0,	30
1984-10-31,	0.371612903225806,	0.181550668303067,	0.488547805329434,	0.385,	0.18,	0.7,	0.154285714285714,	0.588571428571429,	0,	31
1984-11-30,	0.210625,	0.0176894507169292,	0.0839855226916519,	0.025,	0.19,	0.24,	0.194285714285714,	0.447142857142857,	14,	16
1984-12-31,	0.149285714285714,	0.0149173547429654,	0.0999248643069453,	0.025,	0.13,	0.17,	0.137142857142857,	0.144285714285714,	17,	14
1985-01-31,	0.174838709677419,	0.016097819260578,	0.0920723979848558,	0.00999999999999998,	0.14,	0.2,	0.137142857142857,	0.195714285714286,	0,	31
1985-02-28,	0.198214285714286,	0.0130677923065526,	0.065927600825851,	0.02,	0.17,	0.22,	0.188571428571429,	0.214285714285714,	0,	28
1985-03-31,	0.497,	0.866574674604945,	1.7436110153017,	0.085,	0.02,	2.92,	0.0352857142857143,	1.71285714285714,	0,	31
1985-04-30,	1.31966666666667,	0.820077722697287,	0.621427928287916,	0.3225,	0.9,	4.79,	0.91,	2.66,	0,	30
1985-05-31,	0.30741935483871,	0.21009470470775,	0.683414044694674,	0.19,	0.13,	0.87,	0.147142857142857,	0.925714285714286,	0,	31
1985-06-30,	0.1067,	0.0346172669691556,	0.324435491744664,	0.0415,	0.072,	0.19,	0.0738571428571429,	0.16,	0,	30
1985-07-31,	0.166111111111111,	0.0214582738434355,	0.129180243873525,	0.03,	0.13,	0.19,	0.142857142857143,	0.187142857142857,	13,	18
1985-08-31,	0.886071428571429,	2.02528889440991,	2.28569484254242,	0.1775,	0.1,	8.2,	0.102857142857143,	3.16142857142857,	3,	28
1985-09-30,	0.316666666666667,	0.0461133037377414,	0.145620959171815,	0.0674999999999999,	0.25,	0.45,	0.262857142857143,	3.16857142857143,	0,	30
1985-10-31,	0.238387096774194,	0.0571020591685652,	0.239535024929029,	0.11,	0.16,	0.32,	0.165714285714286,	0.311428571428571,	0,	31
1985-11-30,	1.314,	1.65385151316139,	1.25863889890516,	0.8475,	0.3,	4.88,	0.314285714285714,	4.14571428571429,	0,	30
1985-12-31,	1.40333333333333,	1.11814295962588,	0.796776455790412,	2.2725,	0.3,	3.2,	0.307142857142857,	2.82142857142857,	1,	30
1986-01-31,	0.275,	0.0119522860933439,	0.0434628585212506,	0.015,	0.26,	0.29,	0.272857142857143,	0.277142857142857,	23,	8
1986-02-28,	0.286296296296296,	0.0139085331163029,	0.0485809048046801,	0.00999999999999995,	0.26,	0.32,	0.272857142857143,	0.302857142857143,	1,	27
1986-03-31,	2.32225806451613,	2.56237612341543,	1.10339852515458,	2.325,	0.16,	8.5,	0.332857142857143,	6.31428571428571,	0,	31
1986-04-30,	27.88,	27.29073860842,	0.978864369025106,	13.375,	2.5,	153,	3.70714285714286,	58.4142857142857,	0,	30
1986-05-31,	2.67838709677419,	1.25756934010069,	0.469524865026153,	1.995,	0.8,	5.75,	1.47714285714286,	15.3428571428571,	0,	31
1986-06-30,	0.507333333333333,	0.522295552037504,	1.02949188969285,	0.6175,	0.13,	2.1,	0.134285714285714,	3.07285714285714,	0,	30
1986-07-31,	0.868387096774194,	0.810090928123477,	0.932868453634019,	1.03,	0.1,	3,	0.125714285714286,	1.89285714285714,	0,	31
1986-08-31,	0.26,	0.263413489910192,	1.01312880734689,	0.07,	0.12,	0.93,	0.12,	0.83,	0,	31
1986-09-30,	0.615789473684211,	0.221191616012344,	0.359200060190985,	0.28,	0.21,	0.99,	0.458571428571429,	0.818571428571429,	11,	19
1986-10-31,	0.74962962962963,	0.608848102071454,	0.812198555134845,	1.005,	0.19,	2,	0.207142857142857,	1.32285714285714,	4,	27
1986-11-30,	2.44433333333333,	1.14143492068577,	0.466971875365784,	1.215,	0.27,	5.45,	1.53714285714286,	3.96428571428571,	0,	30
1986-12-31,	0.177096774193548,	0.0421262822465261,	0.23787153909696,	0.07,	0.13,	0.26,	0.132857142857143,	1.48,	0,	31
1987-01-31,	0.134285714285714,	0.0174154156796989,	0.129689265699886,	0.02,	0.12,	0.18,	0.121428571428571,	0.155714285714286,	17,	14
1987-02-28,	1.80857142857143,	1.35288686043692,	0.748041707982497,	2.69,	0.2,	3.8,	0.478571428571429,	2.84428571428571,	7,	21
1987-03-31,	2.50935483870968,	1.84440584016257,	0.735011968698287,	3.675,	0.25,	5.16,	0.264285714285714,	4.94714285714286,	0,	31
1987-04-30,	4.02233333333333,	0.472912351238602,	0.11757164611882,	0.245,	2.7,	4.9,	3.5,	5.01142857142857,	0,	30
1987-05-31,	1.33290322580645,	0.725650023764381,	0.544413134963597,	1.375,	0.2,	2.45,	0.354285714285714,	3.22142857142857,	0,	31
1987-06-30,	0.916666666666667,	0.137171760774669,	0.149641920845093,	0.0800000000000001,	0.7,	1.35,	0.785714285714286,	1.29714285714286,	0,	30
1987-07-31,	0.601290322580645,	0.225975543447868,	0.375817695648278,	0.0800000000000001,	0.19,	1.05,	0.268571428571429,	0.872857142857143,	0,	31
1987-08-31,	0.231935483870968,	0.0639489043345654,	0.275718502694232,	0.115,	0.17,	0.34,	0.17,	0.328571428571429,	0,	31
1987-09-30,	0.542333333333333,	0.218863574785335,	0.403559142197914,	0.2725,	0.21,	0.95,	0.215714285714286,	0.861428571428571,	0,	30
1987-10-31,	0.938709677419355,	0.163110227259235,	0.173760035911899,	0.0700000000000001,	0.85,	1.58,	0.855714285714286,	1.07857142857143,	0,	31
1987-11-30,	1.04333333333333,	0.277368587502863,	0.265848486424469,	0.3775,	0.68,	1.67,	0.78,	1.37142857142857,	0,	30
1987-12-31,	0.705806451612903,	0.0182161455030763,	0.0258089812886364,	0.03,	0.68,	0.73,	0.681428571428571,	0.748571428571429,	0,	31
1988-01-31,	0.441363636363636,	0.101713671626144,	0.230453220986113,	0.1525,	0.34,	0.65,	0.345714285714286,	0.694285714285714,	9,	22
1988-02-29,	0.309375,	0.00853912563829967,	0.027601214184403,	0.02,	0.3,	0.32,	0.301428571428571,	0.311428571428571,	13,	16
1988-03-31,	0.43451724137931,	0.37703832892404,	0.867717763574094,	0.77,	0.078,	1.08,	0.0987142857142857,	1.02857142857143,	2,	29
1988-04-30,	1.87433333333333,	1.92454864091931,	1.02679102307628,	1.3725,	0.13,	6.43,	0.130428571428571,	5.03428571428571,	0,	30
1988-05-31,	0.579354838709677,	0.360573020657129,	0.622369913160969,	0.62,	0.04,	1.22,	0.154285714285714,	1.07428571428571,	0,	31
1988-06-30,	1.18966666666667,	0.757438894011206,	0.636681614467251,	0.8675,	0.14,	2.93,	0.632857142857143,	2.00428571428571,	0,	30
1988-07-31,	0.202903225806452,	0.0776399187869701,	0.382645068743414,	0.105,	0.12,	0.37,	0.125714285714286,	0.458571428571429,	0,	31
1988-08-31,	0.541290322580645,	0.234090323528959,	0.432467224636336,	0.245,	0.14,	1,	0.247142857142857,	0.832857142857143,	0,	31
1988-09-30,	1.025,	0.488726353162853,	0.476806198207662,	1.045,	0.42,	1.61,	0.432857142857143,	1.57571428571429,	0,	30
1988-10-31,	1.91129032258065,	1.44310254183012,	0.755040992349937,	0.68,	0.7,	5.73,	1.12571428571429,	4.32857142857143,	0,	31
1988-11-30,	0.562105263157895,	0.142734366622775,	0.253928180321416,	0.265,	0.34,	0.71,	0.395714285714286,	1.94285714285714,	11,	19
1988-12-31,	0.342903225806452,	0.0157466500960462,	0.0459215571944903,	0.03,	0.31,	0.36,	0.32,	0.371428571428571,	0,	31
1989-01-31,	0.344285714285714,	0.022434275189912,	0.0651617951574209,	0.0375,	0.31,	0.38,	0.315714285714286,	0.362857142857143,	17,	14
1989-02-28,	0.407857142857143,	0.0226661998084508,	0.0555738699331542,	0.04,	0.37,	0.44,	0.368571428571429,	0.432857142857143,	0,	28
1989-03-31,	0.747741935483871,	0.389980424102026,	0.521544139221863,	0.42,	0.4,	1.55,	0.431428571428571,	1.40142857142857,	0,	31
1989-04-30,	1.08366666666667,	0.38842283513019,	0.358433868160741,	0.5425,	0.36,	1.72,	0.57,	1.60142857142857,	0,	30
1989-05-31,	1.01967741935484,	0.531328422421687,	0.521075010916554,	0.315,	0.32,	2.53,	0.458571428571429,	1.83142857142857,	0,	31
1989-06-30,	0.652666666666667,	0.323279886564988,	0.495321583092422,	0.37,	0.12,	1.26,	0.227142857142857,	1.09285714285714,	0,	30
1989-07-31,	0.282903225806452,	0.224502316964838,	0.793565772623715,	0.15,	0.13,	0.86,	0.128571428571429,	0.568571428571429,	0,	31
1989-08-31,	0.98,	0.451176240509183,	0.460383918886921,	0.765,	0.26,	1.68,	0.494285714285714,	1.45857142857143,	0,	31
1989-09-30,	1.136,	0.27911930461166,	0.245703613214489,	0.285,	0.56,	1.6,	0.824285714285714,	1.56285714285714,	0,	30
1989-10-31,	0.363,	0.169850847347982,	0.467908670380117,	0.0675,	0.21,	0.91,	0.241428571428571,	1.06142857142857,	1,	30
1989-11-30,	0.375,	0.0556776436283002,	0.148473716342134,	0.085,	0.27,	0.44,	0.308571428571429,	0.424285714285714,	10,	20
1989-12-31,	0.421,	0.0505652262455451,	0.12010742576139,	0.085,	0.36,	0.5,	0.378571428571429,	0.481428571428571,	11,	20
1990-01-31,	0.659677419354839,	0.261692999154451,	0.396698433926063,	0.39,	0.34,	1.22,	0.38,	1.05285714285714,	0,	31
1990-02-28,	0.80625,	0.967945418571385,	1.2005524571428,	0.34,	0.31,	3.63,	0.311428571428571,	1.43714285714286,	12,	16
1990-03-31,	7.78806451612903,	9.40252285979844,	1.20729904590876,	5.69,	1.65,	41.8,	1.78,	21.6814285714286,	0,	31
1990-04-30,	1.872,	1.32389811046642,	0.707210529095309,	2.3175,	0.3,	4.11,	0.388571428571429,	3.75571428571429,	0,	30
1990-05-31,	1.04838709677419,	0.845951522544066,	0.806907606118956,	0.59,	0.3,	3.2,	0.348571428571429,	2.39,	0,	31
1990-06-30,	1.09566666666667,	0.120392557145747,	0.109880642359976,	0.2175,	0.93,	1.32,	0.941428571428572,	1.27,	0,	30
1990-07-31,	0.516451612903226,	0.222658907855293,	0.431132176359405,	0.355,	0.28,	0.99,	0.284285714285714,	1,	0,	31
1990-08-31,	1.76322580645161,	0.607175905850324,	0.344355160654227,	0.905,	1.02,	3.12,	0.842857142857143,	2.33142857142857,	0,	31
1990-09-30,	0.866333333333333,	0.114364310002285,	0.132009592153465,	0.22,	0.68,	1,	0.704285714285714,	1.93,	0,	30
1990-10-31,	1.19387096774194,	0.11505585366406,	0.0963721011506582,	0.155,	1,	1.43,	0.982857142857143,	1.34714285714286,	0,	31
1990-11-30,	1.79033333333333,	0.355513066187285,	0.19857367316363,	0.57,	0.99,	2.19,	1.32714285714286,	2.16714285714286,	0,	30
1990-12-31,	1.99774193548387,	1.49353430867282,	0.747611231533302,	1.575,	0.6,	5.7,	0.941428571428571,	4.44285714285714,	0,	31
1991-01-31,	NA,	NA,	NA,	NA,	NA,	NA,	NA,	NA,	31,	0
1991-02-28,	NA,	NA,	NA,	NA,	NA,	NA,	NA,	NA,	28,	0
1991-03-31,	NA,	NA,	NA,	NA,	NA,	NA,	NA,	NA,	31,	0
1991-04-30,	NA,	NA,	NA,	NA,	NA,	NA,	NA,	NA,	30,	0
1991-05-31,	NA,	NA,	NA,	NA,	NA,	NA,	NA,	NA,	31,	0
1991-06-30,	NA,	NA,	NA,	NA,	NA,	NA,	NA,	NA,	30,	0
1991-07-31,	NA,	NA,	NA,	NA,	NA,	NA,	NA,	NA,	31,	0
1991-08-31,	NA,	NA,	NA,	NA,	NA,	NA,	NA,	NA,	31,	0
1991-09-30,	NA,	NA,	NA,	NA,	NA,	NA,	NA,	NA,	30,	0
1991-10-31,	NA,	NA,	NA,	NA,	NA,	NA,	NA,	NA,	31,	0
1991-11-30,	NA,	NA,	NA,	NA,	NA,	NA,	NA,	NA,	30,	0
1991-12-31,	NA,	NA,	NA,	NA,	NA,	NA,	NA,	NA,	31,	0
1992-01-31,	0.568387096774194,	0.0352227932068188,	0.0619697269813498,	0.0649999999999999,	0.52,	0.62,	0.53,	0.614285714285714,	0,	31
1992-02-29,	0.66,	0.137756753289714,	0.208722353469263,	0.27,	0.49,	0.86,	0.524285714285714,	0.848571428571429,	2,	27
1992-03-31,	0.986842105263158,	0.1487747227477,	0.150758385717669,	0.0449999999999999,	0.52,	1.26,	0.957142857142857,	1.09714285714286,	12,	19
1992-04-30,	1.42933333333333,	0.664685216310404,	0.465031634545525,	0.5325,	0.73,	3.88,	0.88,	2.21714285714286,	0,	30
1992-05-31,	0.632258064516129,	0.272918909536873,	0.43165745896138,	0.54,	0.21,	0.92,	0.304285714285714,	0.988571428571429,	0,	31
1992-06-30,	0.201333333333333,	0.0635030997523815,	0.315412747114478,	0.0575,	0.15,	0.37,	0.151428571428571,	0.301428571428571,	0,	30
1992-07-31,	0.234516129032258,	0.165223862475076,	0.704530912892346,	0.04,	0.15,	0.92,	0.16,	0.4,	0,	31
1992-08-31,	1.077,	0.289983947237037,	0.269251575893256,	0.3275,	0.75,	1.72,	0.495714285714286,	1.51714285714286,	1,	30
1992-09-30,	1.17966666666667,	0.251402731356152,	0.213113363681394,	0.265,	0.63,	1.52,	0.831428571428571,	1.44857142857143,	0,	30
1992-10-31,	1.204,	0.172438894724459,	0.143221673359185,	0.275,	0.78,	1.42,	0.998571428571429,	1.44285714285714,	1,	30
1992-11-30,	1.78733333333333,	0.377614411375097,	0.211272516621651,	0.31,	0.73,	2.15,	1.24,	2.12,	0,	30
1992-12-31,	1.00733333333333,	0.448160480287981,	0.444897895719372,	0.905,	0.57,	1.66,	0.57,	1.74142857142857,	1,	30
