##################################################
# 
# SEASONAL GSIM INDICES
# 
# created on: 2018-03-09
# created by: Lukas Gudmundsson
# 
# ------------------------------------------------
# META DATA:
# ------------------------------------------------
# gsim.no   : RU_0000360      : [-]
# river     : BOLSHOI KARAMAN : [-]
# station   : SOVETSKOJE      : [-]
# country   : RU              : [-]
# latitude  : 51.45           : [deg]
# longitude : 46.75           : [deg]
# altitude  : 82              : [m]
# area      : 3470            : [km2]
# ------------------------------------------------
# 
##################################################
"date",	"MEAN",	"SD",	"CV",	"IQR",	"MIN",	"MAX",	"MIN7",	"MAX7",	"P10",	"P20",	"P30",	"P40",	"P50",	"P60",	"P70",	"P80",	"P90",	"n.missing",	"n.available"
1933-02-28,	0.0166041666666667,	0.0202628888147906,	1.22034964003758,	0.0135,	0.002,	0.072,	0.00257142857142857,	0.0607142857142857,	0.003,	0.004,	0.004,	0.006,	0.0065,	0.0092,	0.0139,	0.024,	0.056,	42,	48
1933-05-31,	0.419784810126582,	1.08718458639484,	2.58986166285294,	0.091,	0.026,	5.44,	0.0282857142857143,	3.46428571428571,	0.0366,	0.069,	0.069,	0.075,	0.092,	0.11,	0.14,	0.24,	0.52,	13,	79
1933-08-31,	0.0694328358208955,	0.0170171249580025,	0.24508756925756,	0.018,	0.053,	0.16,	0.0534285714285714,	0.102,	0.0548,	0.059,	0.062,	0.062,	0.062,	0.065,	0.0696,	0.082,	0.092,	25,	67
1933-11-30,	0.0858271604938272,	0.0186780553882469,	0.217624063067894,	0.012,	0.029,	0.11,	0.0368571428571429,	0.104428571428571,	0.055,	0.085,	0.085,	0.092,	0.092,	0.092,	0.097,	0.097,	0.097,	10,	81
1934-02-28,	NA,	NA,	NA,	NA,	NA,	NA,	NA,	NA,	NA,	NA,	NA,	NA,	NA,	NA,	NA,	NA,	NA,	90,	0
1934-05-31,	NA,	NA,	NA,	NA,	NA,	NA,	NA,	NA,	NA,	NA,	NA,	NA,	NA,	NA,	NA,	NA,	NA,	92,	0
1934-08-31,	NA,	NA,	NA,	NA,	NA,	NA,	NA,	NA,	NA,	NA,	NA,	NA,	NA,	NA,	NA,	NA,	NA,	92,	0
1934-11-30,	NA,	NA,	NA,	NA,	NA,	NA,	NA,	NA,	NA,	NA,	NA,	NA,	NA,	NA,	NA,	NA,	NA,	91,	0
1935-02-28,	NA,	NA,	NA,	NA,	NA,	NA,	NA,	NA,	NA,	NA,	NA,	NA,	NA,	NA,	NA,	NA,	NA,	90,	0
1935-05-31,	NA,	NA,	NA,	NA,	NA,	NA,	NA,	NA,	NA,	NA,	NA,	NA,	NA,	NA,	NA,	NA,	NA,	92,	0
1935-08-31,	NA,	NA,	NA,	NA,	NA,	NA,	NA,	NA,	NA,	NA,	NA,	NA,	NA,	NA,	NA,	NA,	NA,	92,	0
1935-11-30,	NA,	NA,	NA,	NA,	NA,	NA,	NA,	NA,	NA,	NA,	NA,	NA,	NA,	NA,	NA,	NA,	NA,	91,	0
1936-02-29,	0.0664444444444444,	0.0593765526112791,	0.893627045989151,	0.039,	0.021,	0.21,	0.0228571428571429,	0.207142857142857,	0.023,	0.026,	0.03,	0.036,	0.037,	0.043,	0.056,	0.11,	0.18,	10,	81
1936-05-31,	5.15786956521739,	22.3058082147827,	4.32461657526281,	0.509,	0.022,	153,	0.023,	61.2071428571429,	0.024,	0.0302,	0.14,	0.15,	0.2,	0.26,	0.371,	0.94,	3.848,	0,	92
1936-08-31,	0.092195652173913,	0.0792830842829424,	0.85994385216113,	0.114,	0.03,	0.45,	0.0317142857142857,	0.252857142857143,	0.03,	0.036,	0.036,	0.05,	0.05,	0.07,	0.1,	0.15,	0.2,	0,	92
1936-11-30,	0.13021978021978,	0.0831728858326374,	0.638711612723207,	0.08,	0.05,	0.38,	0.042,	0.328571428571429,	0.07,	0.07,	0.07,	0.1,	0.1,	0.1,	0.15,	0.2,	0.26,	0,	91
1937-02-28,	0.0681333333333333,	0.030093935332891,	0.441691810169633,	0.034,	0.016,	0.13,	0.0165714285714286,	0.116714285714286,	0.022,	0.0476,	0.0527,	0.0596,	0.066,	0.07,	0.082,	0.091,	0.11,	0,	90
1937-05-31,	5.51724390243902,	15.8500239035229,	2.87281551872594,	0.56,	0.021,	104,	0.0214285714285714,	49.3571428571429,	0.0696,	0.17,	0.19,	0.22,	0.25,	0.28,	0.419,	1.368,	19.6900000000001,	10,	82
1937-08-31,	0.0970760869565217,	0.0822061511689626,	0.846821846102851,	0.043,	0.042,	0.64,	0.0472857142857143,	0.298571428571429,	0.051,	0.0554,	0.059,	0.064,	0.067,	0.0816,	0.0937,	0.11,	0.188,	0,	92
1937-11-30,	0.075975,	0.0240558290522776,	0.316628220497238,	0.032,	0.049,	0.13,	0.0494285714285714,	0.118571428571429,	0.052,	0.056,	0.06,	0.063,	0.0675,	0.069,	0.088,	0.0992,	0.12,	11,	80
1938-02-28,	0.0660555555555556,	0.0358339996454033,	0.542482753252532,	0.028,	0.014,	0.27,	0.0204285714285714,	0.108857142857143,	0.0359,	0.048,	0.052,	0.055,	0.0625,	0.067,	0.0726,	0.079,	0.0873,	0,	90
1938-05-31,	1.21567391304348,	3.18955721240114,	2.6236947080784,	0.5615,	0.057,	18.5,	0.0548571428571429,	11.1885714285714,	0.0671,	0.079,	0.12,	0.14,	0.16,	0.18,	0.351,	0.828,	2.15,	0,	92
1938-08-31,	0.0519692307692308,	0.0197800161390616,	0.380610138851097,	0.031,	0.03,	0.09,	0.0308571428571429,	0.0947142857142857,	0.03,	0.036,	0.036,	0.0402,	0.043,	0.055,	0.067,	0.079,	0.079,	27,	65
1938-11-30,	0.077703125,	0.0209145500257065,	0.269159702723751,	0.023,	0.03,	0.1,	0.0331428571428571,	0.0957142857142857,	0.043,	0.067,	0.079,	0.079,	0.09,	0.09,	0.09,	0.09,	0.1,	27,	64
1939-02-28,	0.0522816901408451,	0.0468798412657575,	0.89667799834827,	0.059,	0.003,	0.22,	0.0115714285714286,	0.148857142857143,	0.012,	0.014,	0.019,	0.024,	0.029,	0.064,	0.076,	0.078,	0.094,	19,	71
1939-05-31,	1.74808695652174,	3.52397641487216,	2.01590453022086,	1.0475,	0.022,	17.4,	0.0375714285714286,	12.6814285714286,	0.058,	0.13,	0.18,	0.2,	0.315,	0.542,	0.988,	1.98,	5.155,	0,	92
1939-08-31,	0.0606666666666667,	0.0304654582132642,	0.502177882636222,	0.02,	0.022,	0.2,	0.031,	0.253571428571429,	0.04,	0.04,	0.05,	0.05,	0.05,	0.058,	0.0636,	0.077,	0.0952000000000001,	17,	75
1939-11-30,	0.0664025974025974,	0.0197085739692544,	0.29680426278752,	0.027,	0.04,	0.1,	0.0414285714285714,	0.0928571428571429,	0.04,	0.042,	0.05,	0.058,	0.065,	0.077,	0.077,	0.078,	0.1,	14,	77
1940-02-29,	0.106242424242424,	0.0343920687650422,	0.323713140115914,	0.053,	0.054,	0.17,	0.061,	0.144285714285714,	0.0608,	0.0722,	0.079,	0.0928,	0.12,	0.12,	0.12,	0.13,	0.148,	58,	33
1940-05-31,	2.64461538461538,	6.3897975197698,	2.41615380328701,	2.677,	0.044,	40,	0.0674285714285714,	18.3357142857143,	0.073,	0.0754,	0.08,	0.08,	0.17,	0.282,	1.581,	3.972,	5.71,	14,	78
1940-08-31,	0.0340326086956522,	0.0218664533505302,	0.642514758303666,	0.019,	0.005,	0.13,	0.00914285714285714,	0.129,	0.014,	0.022,	0.022,	0.026,	0.026,	0.031,	0.035,	0.049,	0.058,	0,	92
1940-11-30,	0.0783508771929825,	0.0488198185854556,	0.623092176303396,	0.056,	0.026,	0.28,	0.0254285714285714,	0.152857142857143,	0.04,	0.04,	0.044,	0.049,	0.058,	0.083,	0.092,	0.11,	0.13,	34,	57
1941-02-28,	0.155444444444444,	0.0582497742892114,	0.374730499358758,	0.112,	0.075,	0.26,	0.0651428571428571,	0.245714285714286,	0.085,	0.093,	0.0994,	0.13,	0.15,	0.18,	0.2,	0.21,	0.24,	0,	90
1941-05-31,	32.6797173913044,	125.285503298308,	3.8337388845243,	2.143,	0.021,	889,	0.0272857142857143,	374.014285714286,	0.044,	0.093,	0.11,	0.134,	0.155,	0.272,	0.716,	5.096,	69.6800000000002,	0,	92
1941-08-31,	0.115260869565217,	0.135416725115452,	1.17487162491716,	0.082,	0.01,	1.19,	0.0181428571428571,	0.334285714285714,	0.0243,	0.051,	0.058,	0.072,	0.0965,	0.12,	0.14,	0.14,	0.169,	0,	92
1941-11-30,	0.22679012345679,	0.0874332196664092,	0.385524811811603,	0.17,	0.12,	0.4,	0.125714285714286,	0.382857142857143,	0.13,	0.13,	0.14,	0.19,	0.22,	0.26,	0.28,	0.32,	0.35,	10,	81
1942-02-28,	0.16458,	0.0427074003050563,	0.259493257413151,	0.08,	0.099,	0.22,	0.104142857142857,	0.214285714285714,	0.11,	0.118,	0.12,	0.16,	0.18,	0.19,	0.2,	0.202,	0.21,	40,	50
1942-05-31,	42.6967391304348,	135.957914222745,	3.18426926720108,	5.29,	0.22,	874,	0.215714285714286,	474.857142857143,	0.231,	0.25,	0.26,	0.404,	0.45,	1.708,	3.783,	11.872,	61.0300000000001,	0,	92
1942-08-31,	0.5085,	0.227830981308417,	0.448045194313504,	0.305,	0.069,	0.87,	0.0707142857142857,	0.84,	0.122,	0.284,	0.446,	0.51,	0.55,	0.586,	0.637,	0.71,	0.789,	0,	92
1942-11-30,	0.110901098901099,	0.0283874209016188,	0.255970600678489,	0.0555,	0.073,	0.16,	0.0712857142857143,	0.157142857142857,	0.077,	0.082,	0.087,	0.095,	0.11,	0.12,	0.13,	0.14,	0.15,	0,	91
1943-02-28,	0.265333333333333,	0.14260970545474,	0.537473764276657,	0.135,	0.04,	0.59,	0.111428571428571,	0.572857142857143,	0.13,	0.17,	0.19,	0.2,	0.205,	0.224,	0.273,	0.422,	0.521,	0,	90
1943-05-31,	7.00673913043478,	14.8381673069857,	2.11769940777929,	2.4425,	0.23,	80.8,	0.23,	49.9142857142857,	0.24,	0.444,	0.59,	0.72,	0.8,	0.978,	2.377,	3.844,	25.37,	0,	92
1943-08-31,	0.166521739130435,	0.0335593547531487,	0.201531373191232,	0.0525,	0.11,	0.23,	0.114285714285714,	0.23,	0.12,	0.13,	0.143,	0.154,	0.17,	0.18,	0.19,	0.2,	0.21,	0,	92
1943-11-30,	0.316043956043956,	0.0804415470440648,	0.254526452747215,	0.135,	0.2,	0.47,	0.158571428571429,	0.455714285714286,	0.22,	0.23,	0.26,	0.28,	0.3,	0.33,	0.37,	0.4,	0.43,	0,	91
1944-02-29,	0.358345238095238,	0.248475326357319,	0.693396478987902,	0.499,	0.047,	0.75,	0.0487142857142857,	0.725714285714286,	0.0523,	0.0622,	0.0848,	0.322,	0.395,	0.468,	0.541,	0.614,	0.677,	7,	84
1944-05-31,	12.3172413793103,	23.1779401280742,	1.88174765877422,	20.755,	0.25,	157,	0.255714285714286,	60.6,	0.27,	0.29,	0.308,	0.32,	0.48,	1.3,	13.68,	24.9,	32.92,	5,	87
1944-08-31,	0.372586956521739,	0.211261732994876,	0.567013228179256,	0.385,	0.098,	0.75,	0.114,	0.724285714285714,	0.14,	0.17,	0.2,	0.224,	0.3,	0.46,	0.537,	0.6,	0.678,	0,	92
1944-11-30,	0.177142857142857,	0.0887729402500273,	0.501137565927574,	0.09,	0.1,	0.44,	0.102857142857143,	0.475714285714286,	0.11,	0.11,	0.12,	0.13,	0.13,	0.15,	0.19,	0.23,	0.33,	0,	91
1945-02-28,	0.0570759493670886,	0.0258376450422777,	0.452688835293843,	0.048,	0.026,	0.11,	0.027,	0.0985714285714286,	0.028,	0.03,	0.0344,	0.04,	0.045,	0.072,	0.079,	0.084,	0.09,	11,	79
1945-05-31,	1.42554385964912,	2.56965060903351,	1.80257562167606,	0.776,	0.03,	9.55,	0.0418571428571429,	7.47571428571429,	0.0554,	0.0614,	0.084,	0.12,	0.14,	0.296,	0.674,	1.644,	5.418,	35,	57
1945-08-31,	0.0983170731707317,	0.0404446776624504,	0.411369829858711,	0.082,	0.044,	0.16,	0.0488571428571429,	0.151428571428571,	0.05,	0.056,	0.062,	0.077,	0.095,	0.11,	0.13,	0.15,	0.15,	51,	41
1945-11-30,	0.0936222222222222,	0.0128563547938698,	0.13732161541043,	0.013,	0.065,	0.11,	0.0581428571428571,	0.11,	0.0738,	0.0826,	0.0902,	0.093,	0.096,	0.0994,	0.1,	0.102,	0.11,	46,	45
1946-02-28,	0.0536888888888889,	0.0218681670262654,	0.407312713651466,	0.0375,	0.02,	0.089,	0.0254285714285714,	0.0885714285714286,	0.0279,	0.032,	0.038,	0.046,	0.049,	0.055,	0.0633,	0.0842,	0.0862,	0,	90
1946-05-31,	9.39089130434783,	21.5234187648876,	2.29194631982617,	0.4535,	0.017,	90.2,	0.0177142857142857,	65.6571428571429,	0.018,	0.02,	0.2,	0.23,	0.26,	0.276,	0.377,	6.03199999999998,	47.0700000000001,	0,	92
1946-08-31,	0.122148148148148,	0.0270823333148711,	0.221717101122353,	0.04,	0.095,	0.19,	0.0975714285714286,	0.202857142857143,	0.098,	0.1,	0.1,	0.1,	0.11,	0.12,	0.14,	0.15,	0.16,	11,	81
1946-11-30,	0.0827777777777778,	0.00593865950932336,	0.0717421954146446,	0.00800000000000001,	0.072,	0.095,	0.0742857142857143,	0.0974285714285714,	0.076,	0.076,	0.0792,	0.083,	0.084,	0.084,	0.084,	0.0864,	0.0912,	46,	45
1947-02-28,	0.0744857142857143,	0.0740545711155334,	0.9942117334268,	0.11275,	0.007,	0.45,	0.00928571428571429,	0.165714285714286,	0.009,	0.0126,	0.0201,	0.03,	0.038,	0.0908,	0.12,	0.14,	0.16,	20,	70
1947-05-31,	2.76832967032967,	10.0837317486632,	3.64253284453018,	0.069,	0.008,	58.4,	0.00928571428571429,	32.1028571428571,	0.01,	0.023,	0.1,	0.11,	0.13,	0.15,	0.16,	0.17,	2.66,	1,	91
1947-08-31,	0.0868913043478261,	0.029151162124777,	0.335489981921377,	0.05525,	0.041,	0.14,	0.043,	0.127142857142857,	0.048,	0.048,	0.0677,	0.082,	0.1,	0.1,	0.11,	0.11,	0.12,	0,	92
1947-11-30,	0.0877532467532467,	0.0350530259389655,	0.399449903403928,	0.055,	0.041,	0.17,	0.0495714285714286,	0.16,	0.048,	0.057,	0.065,	0.074,	0.074,	0.0788,	0.1,	0.128,	0.144,	14,	77
1948-02-29,	0.624901098901099,	1.54548270097041,	2.47316367932168,	0.135,	0.059,	8.76,	0.0804285714285714,	5.23285714285714,	0.087,	0.1,	0.12,	0.13,	0.14,	0.17,	0.22,	0.29,	1.25,	0,	91
1948-05-31,	12.0760326086957,	42.2988041140934,	3.50270701352984,	0.8025,	0.02,	275,	0.0257142857142857,	134.628571428571,	0.0337,	0.0842,	0.123,	0.16,	0.22,	0.44,	0.711,	1.078,	26.49,	0,	92
1948-08-31,	0.182989130434783,	1.03493358596244,	5.65571071627828,	0.03175,	0.034,	10,	0.037,	1.52285714285714,	0.041,	0.0506,	0.074,	0.074,	0.084,	0.084,	0.084,	0.094,	0.1,	0,	92
1948-11-30,	0.120175675675676,	0.0228217380799374,	0.189903139313546,	0.04,	0.074,	0.15,	0.0607142857142857,	0.144285714285714,	0.0893,	0.097,	0.1,	0.112,	0.13,	0.14,	0.14,	0.14,	0.14,	17,	74
1949-02-28,	0.0705888888888889,	0.026303284899502,	0.37262641916499,	0.01775,	0.035,	0.23,	0.042,	0.125857142857143,	0.044,	0.053,	0.061,	0.067,	0.068,	0.069,	0.075,	0.078,	0.092,	0,	90
1949-05-31,	9.75216304347826,	34.6318764271189,	3.55119949007404,	1.87975,	0.053,	248,	0.0647142857142857,	108.971428571429,	0.07,	0.0752,	0.0953,	0.188,	0.28,	0.444,	1.503,	2.394,	10.767,	0,	92
1949-08-31,	0.0934,	0.040849818754894,	0.437364226497795,	0.05,	0.044,	0.17,	0.0511428571428571,	0.195714285714286,	0.055,	0.055,	0.055,	0.069,	0.083,	0.1,	0.1,	0.126,	0.17,	52,	40
1949-11-30,	0.0717407407407407,	0.0144785921148995,	0.201818269025445,	0.0215,	0.037,	0.1,	0.0502857142857143,	0.0878571428571429,	0.055,	0.0586,	0.064,	0.069,	0.069,	0.0742,	0.083,	0.083,	0.083,	37,	54
1950-02-28,	0.079474358974359,	0.0334363999331992,	0.420719340988794,	0.032,	0.027,	0.19,	0.046,	0.133,	0.0497,	0.0564,	0.063,	0.068,	0.072,	0.0742,	0.0838,	0.0986,	0.12,	12,	78
1950-05-31,	1.54261538461538,	4.78535311628645,	3.10210384520414,	0.225,	0.046,	28.4,	0.0632857142857143,	14.37,	0.0647,	0.091,	0.11,	0.12,	0.14,	0.2,	0.27,	0.4,	2.11,	14,	78
1950-08-31,	0.0691739130434783,	0.0175609511217373,	0.253866672407265,	0.02725,	0.04,	0.12,	0.0435714285714286,	0.0951428571428571,	0.045,	0.054,	0.054,	0.064,	0.064,	0.0724,	0.078,	0.091,	0.091,	0,	92
1950-11-30,	0.0751975308641975,	0.0157784819874144,	0.209827128711306,	0.024,	0.054,	0.14,	0.054,	0.098,	0.054,	0.062,	0.064,	0.071,	0.078,	0.078,	0.081,	0.091,	0.091,	10,	81
1951-02-28,	0.09522,	0.027900910671993,	0.293015234950567,	0.04725,	0.046,	0.13,	0.0524285714285714,	0.128571428571429,	0.048,	0.0644,	0.078,	0.097,	0.1,	0.11,	0.12,	0.12,	0.13,	40,	50
1951-05-31,	15.5022564102564,	49.6641457672489,	3.20367206249993,	0.8655,	0.065,	245,	0.081,	156.342857142857,	0.0817,	0.0874,	0.1,	0.1,	0.14,	0.284,	0.753,	1.78,	25.2,	14,	78
1951-08-31,	0.0504565217391304,	0.0147918993597797,	0.293161297091714,	0.0205,	0.02,	0.078,	0.023,	0.0801428571428571,	0.0291,	0.0362,	0.044,	0.048,	0.052,	0.055,	0.059,	0.063,	0.0699,	0,	92
1951-11-30,	0.0747362637362637,	0.0203850899569242,	0.272760356724026,	0.0365,	0.038,	0.096,	0.0395714285714286,	0.0955714285714286,	0.042,	0.051,	0.061,	0.071,	0.082,	0.092,	0.093,	0.094,	0.095,	0,	91
1952-02-29,	0.0795714285714286,	0.0138725491185874,	0.174340832729105,	0.018,	0.059,	0.12,	0.0601428571428571,	0.124285714285714,	0.062,	0.065,	0.073,	0.075,	0.077,	0.081,	0.086,	0.091,	0.096,	0,	91
1952-05-31,	10.9687717391304,	38.1908604532042,	3.48178094699159,	2.8825,	0.075,	229,	0.0738571428571429,	124.271428571429,	0.0911,	0.11,	0.123,	0.15,	0.185,	0.292,	1.522,	4.634,	8.865,	0,	92
1952-08-31,	0.0759021739130435,	0.0285849648417204,	0.376602715944189,	0.052,	0.036,	0.13,	0.036,	0.142857142857143,	0.037,	0.045,	0.053,	0.0604,	0.081,	0.0906,	0.096,	0.0998,	0.11,	0,	92
1952-11-30,	0.0733076923076923,	0.0317838856122939,	0.43356821926529,	0.057,	0.04,	0.15,	0.0401428571428571,	0.135714285714286,	0.041,	0.042,	0.045,	0.052,	0.064,	0.082,	0.093,	0.1,	0.12,	0,	91
1953-02-28,	0.0865,	0.0473165885346968,	0.547012584216148,	0.05575,	0.027,	0.25,	0.0302857142857143,	0.178571428571429,	0.0409,	0.0526,	0.055,	0.0638,	0.069,	0.0814,	0.0979,	0.12,	0.16,	0,	90
1953-05-31,	4.61458695652174,	13.0418693210736,	2.82622679861773,	1.1645,	0.032,	81.7,	0.0348571428571429,	44.1857142857143,	0.052,	0.0868,	0.123,	0.158,	0.28,	0.44,	0.72,	3.436,	7.92,	0,	92
1953-08-31,	0.0484054054054054,	0.0144316233045094,	0.298140738284113,	0.018,	0.034,	0.09,	0.0352857142857143,	0.128571428571429,	0.034,	0.034,	0.043,	0.043,	0.0475,	0.052,	0.052,	0.052,	0.0653000000000001,	18,	74
1953-11-30,	0.0631494252873563,	0.0741626949310319,	1.17440015635234,	0.008,	0.032,	0.72,	0.0428571428571429,	0.173571428571429,	0.046,	0.048,	0.05,	0.052,	0.054,	0.0556,	0.057,	0.058,	0.063,	4,	87
1954-02-28,	0.0457555555555556,	0.0154747428223615,	0.338204675573708,	0.01875,	0.015,	0.085,	0.0182857142857143,	0.0787142857142857,	0.0289,	0.0336,	0.038,	0.042,	0.044,	0.048,	0.0523,	0.056,	0.067,	0,	90
1954-05-31,	0.401760869565217,	0.633330258959353,	1.57638612153727,	0.339,	0.046,	3.71,	0.046,	2.25142857142857,	0.057,	0.065,	0.0779000000000001,	0.0934,	0.165,	0.23,	0.31,	0.64,	0.924000000000001,	0,	92
1954-08-31,	0.0314918032786885,	0.0160381035358711,	0.509278665116158,	0.022,	0.015,	0.1,	0.015,	0.0782857142857143,	0.015,	0.015,	0.026,	0.026,	0.026,	0.037,	0.037,	0.037,	0.048,	31,	61
1954-11-30,	0.0442631578947368,	0.0168201216175172,	0.380002747601459,	0.027,	0.015,	0.089,	0.0212857142857143,	0.0671428571428571,	0.026,	0.026,	0.037,	0.037,	0.048,	0.048,	0.048,	0.061,	0.061,	15,	76
1955-02-28,	2.0452,	8.32847549506572,	4.0722058943212,	0.04775,	0.021,	56.2,	0.0241428571428571,	24.5957142857143,	0.0409,	0.0564,	0.065,	0.069,	0.074,	0.0794,	0.103,	0.13,	0.328000000000009,	0,	90
1955-05-31,	31.9907826086957,	118.647767348515,	3.70881102846995,	1.3325,	0.082,	663,	0.153142857142857,	394.257142857143,	0.16,	0.174,	0.24,	0.39,	0.65,	0.956,	1.31,	2.856,	18.2,	0,	92
1955-08-31,	0.0510869565217391,	0.0267621399684404,	0.523854654701387,	0.013,	0.032,	0.14,	0.0334285714285714,	0.154285714285714,	0.032,	0.037,	0.037,	0.043,	0.043,	0.043,	0.05,	0.05,	0.075,	0,	92
1955-11-30,	0.0775625,	0.0324063768337911,	0.417809854424381,	0.03025,	0.043,	0.16,	0.0421428571428571,	0.151428571428571,	0.05,	0.05,	0.062,	0.062,	0.068,	0.0744,	0.075,	0.091,	0.14,	11,	80
1956-02-29,	0.071075,	0.0153175459911134,	0.215512430406097,	0.028,	0.045,	0.092,	0.0552857142857143,	0.0927142857142857,	0.051,	0.061,	0.061,	0.061,	0.065,	0.071,	0.088,	0.09,	0.091,	11,	80
1956-05-31,	7.90391304347826,	20.7779750748752,	2.62882131427543,	1.41575,	0.056,	112,	0.0591428571428571,	73.6142857142857,	0.061,	0.065,	0.07,	0.166,	0.35,	0.548,	1.272,	3.424,	19.6,	0,	92
1956-08-31,	0.0739636363636364,	0.0562895831545871,	0.761044020034977,	0.03,	0.03,	0.26,	0.0311428571428571,	0.274285714285714,	0.0332,	0.038,	0.05,	0.05,	0.05,	0.05,	0.068,	0.09,	0.19,	37,	55
1956-11-30,	0.0821898734177215,	0.0510962078851277,	0.621684956557074,	0.0465,	0.03,	0.32,	0.0311428571428571,	0.195714285714286,	0.038,	0.0452,	0.05,	0.05,	0.068,	0.09,	0.093,	0.12,	0.152,	12,	79
1957-02-28,	0.0790222222222222,	0.050446985807169,	0.638389865388809,	0.0535,	0.021,	0.19,	0.0252857142857143,	0.182857142857143,	0.0318,	0.0408,	0.0497,	0.0566,	0.06,	0.0644,	0.0716,	0.132,	0.17,	0,	90
1957-05-31,	20.1915108695652,	82.1094680163193,	4.066534126482,	0.72425,	0.065,	560,	0.0658571428571429,	245.557142857143,	0.07,	0.074,	0.0783,	0.0854,	0.19,	0.326,	0.595,	1.558,	16.83,	0,	92
1957-08-31,	0.0417826086956522,	0.00868727259891363,	0.207915993522387,	0.013,	0.029,	0.064,	0.0298571428571429,	0.0672857142857143,	0.032,	0.034,	0.036,	0.038,	0.041,	0.043,	0.0457,	0.049,	0.0539,	0,	92
1957-11-30,	0.0574175824175824,	0.0191984177207197,	0.334364787097701,	0.035,	0.028,	0.092,	0.0307142857142857,	0.0891428571428571,	0.033,	0.037,	0.042,	0.05,	0.057,	0.063,	0.07,	0.077,	0.085,	0,	91
1958-02-28,	3.6930487804878,	13.0594437282534,	3.536222916213,	0.153,	0.026,	78.8,	0.0301428571428571,	38.7385714285714,	0.0412,	0.0492,	0.0752,	0.13,	0.13,	0.16,	0.197,	0.334,	4.75900000000001,	8,	82
1958-05-31,	11.1622826086957,	23.5656248930635,	2.11118332326628,	5.0925,	0.03,	117,	0.0385714285714286,	55.1142857142857,	0.082,	0.324,	0.79,	1.214,	1.34,	1.992,	3.992,	9.056,	36.58,	0,	92
1958-08-31,	0.273336956521739,	1.01178460850313,	3.70160193988498,	0.065,	0.007,	8.94,	0.0142857142857143,	2.44285714285714,	0.0234,	0.04,	0.05,	0.05,	0.065,	0.08,	0.1,	0.12,	0.324,	0,	92
1958-11-30,	0.152704918032787,	0.121070137284454,	0.792837184578818,	0.03,	0.05,	0.81,	0.0807142857142857,	0.364285714285714,	0.08,	0.12,	0.12,	0.12,	0.14,	0.15,	0.15,	0.15,	0.15,	30,	61
1959-02-28,	0.193711111111111,	0.138011581051626,	0.712460840578544,	0.148,	0.069,	0.8,	0.0745714285714286,	0.468571428571429,	0.083,	0.089,	0.0957,	0.12,	0.14,	0.164,	0.23,	0.286,	0.391,	0,	90
1959-05-31,	3.18002173913043,	6.3063200637753,	1.98310595999251,	2.15,	0.094,	28.7,	0.102571428571429,	20.7428571428571,	0.12,	0.14,	0.18,	0.18,	0.21,	0.24,	1.236,	4.126,	11.64,	0,	92
1959-08-31,	0.581280487804878,	1.33783074160927,	2.3015235668092,	0.215,	0.027,	9.12,	0.0457142857142857,	4.31857142857143,	0.05,	0.075,	0.1,	0.14,	0.14,	0.18,	0.24,	0.36,	1.749,	10,	82
1959-11-30,	0.272472527472527,	0.257055304929561,	0.943417332066549,	0.26,	0.04,	1.68,	0.0578571428571429,	0.764285714285714,	0.075,	0.1,	0.14,	0.14,	0.18,	0.24,	0.32,	0.38,	0.5,	0,	91
1960-02-29,	0.398747252747253,	1.04514474907553,	2.62107072054988,	0.081,	0.036,	8.18,	0.0601428571428571,	3.17428571428571,	0.072,	0.083,	0.086,	0.097,	0.1,	0.11,	0.15,	0.2,	0.74,	0,	91
1960-05-31,	5.65496739130435,	13.1709837212616,	2.32909985325727,	1.28325,	0.024,	55.2,	0.0302857142857143,	45.3571428571429,	0.054,	0.086,	0.11,	0.14,	0.285,	0.55,	0.832000000000001,	2.028,	25.07,	0,	92
1960-08-31,	0.0642608695652174,	0.0128951109909155,	0.200668168329538,	0.012,	0.048,	0.11,	0.051,	0.0805714285714286,	0.055,	0.055,	0.0574,	0.0602,	0.063,	0.0658,	0.068,	0.068,	0.068,	23,	69
1960-11-30,	0.0928351648351648,	0.01694124732143,	0.182487394205745,	0.022,	0.07,	0.13,	0.0685714285714286,	0.127142857142857,	0.074,	0.077,	0.081,	0.085,	0.09,	0.094,	0.099,	0.11,	0.12,	0,	91
1961-02-28,	0.218811111111111,	0.152320396683906,	0.696127339742628,	0.15,	0.035,	0.84,	0.0494285714285714,	0.645714285714286,	0.1,	0.12,	0.14,	0.16,	0.18,	0.2,	0.27,	0.28,	0.32,	0,	90
1961-05-31,	23.2057826086957,	88.325732559747,	3.80619494929896,	0.44,	0.094,	601,	0.103142857142857,	276.028571428571,	0.14,	0.21,	0.23,	0.23,	0.25,	0.25,	0.521,	0.9,	21.77,	0,	92
1961-08-31,	0.0886603773584906,	0.0518340337394363,	0.584635834898941,	0.027,	0.034,	0.35,	0.0408571428571429,	0.238571428571429,	0.046,	0.0512,	0.072,	0.072,	0.086,	0.086,	0.086,	0.086,	0.136,	39,	53
1961-11-30,	0.093448275862069,	0.0453930871983417,	0.485756283672291,	0.038,	0.046,	0.32,	0.046,	0.149714285714286,	0.046,	0.072,	0.072,	0.072,	0.086,	0.086,	0.0992000000000001,	0.12,	0.123,	33,	58
1962-02-28,	0.0935593220338983,	0.0216398986440681,	0.231296018115945,	0.023,	0.03,	0.13,	0.0471428571428571,	0.121428571428571,	0.064,	0.0838,	0.088,	0.092,	0.094,	0.099,	0.11,	0.11,	0.12,	31,	59
1962-05-31,	9.72075949367089,	15.9813371742577,	1.64404203032315,	12.66,	0.11,	57,	0.12,	46.1714285714286,	0.12,	0.136,	0.15,	0.226,	0.5,	2.208,	4.80600000000001,	26.58,	33.86,	13,	79
1962-08-31,	0.0891413043478261,	0.00605756546633068,	0.0679546424707258,	0.01,	0.081,	0.11,	0.0815714285714286,	0.115714285714286,	0.0821,	0.084,	0.085,	0.086,	0.087,	0.0896,	0.092,	0.095,	0.098,	0,	92
1962-11-30,	0.0832,	0.00103279555898865,	0.0124134081609212,	0.00175,	0.082,	0.085,	0.0827142857142857,	0.0857142857142857,	0.082,	0.082,	0.0827,	0.083,	0.083,	0.0834,	0.084,	0.084,	0.0841,	81,	10
1963-02-28,	0.188095238095238,	0.0353014231468149,	0.18767845217294,	0.07,	0.15,	0.23,	0.15,	0.225714285714286,	0.15,	0.15,	0.15,	0.17,	0.17,	0.22,	0.22,	0.23,	0.23,	69,	21
1963-05-31,	7.25321621621622,	11.7835200082694,	1.62459240935416,	8.12,	0.045,	37.4,	0.085,	29.5857142857143,	0.0824,	0.11,	0.186,	0.376,	0.77,	2.864,	4.964,	12.472,	29.32,	55,	37
1963-08-31,	0.420493670886076,	0.900741658421458,	2.14210515112722,	0.451,	0.041,	5.63,	0.041,	1.37285714285714,	0.041,	0.0472,	0.05,	0.0564,	0.068,	0.174,	0.47,	0.514,	0.714,	13,	79
1963-11-30,	0.0695890410958904,	0.0417821185890562,	0.600412334055335,	0.052,	0.028,	0.17,	0.0312857142857143,	0.152857142857143,	0.032,	0.035,	0.0412,	0.0478,	0.055,	0.0612,	0.0684,	0.1,	0.148,	18,	73
1964-02-29,	0.206016666666667,	0.0932929578730387,	0.452841798590917,	0.1625,	0.073,	0.36,	0.0954285714285714,	0.352857142857143,	0.0945,	0.12,	0.13,	0.15,	0.185,	0.24,	0.273,	0.312,	0.34,	31,	60
1964-05-31,	23.1854545454545,	49.4655931448803,	2.13347523758502,	9.025,	0.11,	207,	0.12,	149.571428571429,	0.12,	0.13,	0.19,	0.28,	0.345,	0.5,	4.23000000000001,	28.4,	102,	26,	66
1964-08-31,	0.330924050632911,	1.21032571132364,	3.65741235491594,	0.148,	0.035,	9.64,	0.0392857142857143,	1.69142857142857,	0.035,	0.05,	0.0628,	0.083,	0.091,	0.091,	0.176,	0.252,	0.336,	13,	79
1964-11-30,	0.134220588235294,	0.1024085825444,	0.762987138492301,	0.1425,	0.035,	0.37,	0.0392857142857143,	0.314285714285714,	0.044,	0.055,	0.0641,	0.0788,	0.0815,	0.09,	0.179,	0.246,	0.293,	23,	68
1965-02-28,	0.181102564102564,	0.272585151225566,	1.50514241792398,	0.0875,	0.061,	2.25,	0.0811428571428571,	0.662857142857143,	0.094,	0.097,	0.1,	0.11,	0.13,	0.15,	0.17,	0.2,	0.23,	12,	78
1965-05-31,	3.08981481481481,	8.20656474280059,	2.65600537075956,	0.86,	0.054,	38.6,	0.0561428571428571,	27.4714285714286,	0.06,	0.078,	0.1,	0.11,	0.12,	0.18,	0.600000000000001,	1.41,	6.8,	11,	81
1965-08-31,	0.0829010989010989,	0.0441696363643259,	0.532799166112626,	0.083,	0.04,	0.18,	0.0401428571428571,	0.17,	0.043,	0.046,	0.048,	0.051,	0.052,	0.082,	0.11,	0.13,	0.14,	1,	91
1965-11-30,	0.0544390243902439,	0.0185466362868029,	0.340686419246827,	0.0205,	0.015,	0.12,	0.0247142857142857,	0.087,	0.038,	0.0402,	0.046,	0.048,	0.052,	0.0536,	0.0611,	0.0678,	0.0809,	9,	82
1966-02-28,	0.0726901408450704,	0.03597959403777,	0.494972132664536,	0.043,	0.03,	0.19,	0.0382857142857143,	0.151428571428571,	0.039,	0.04,	0.045,	0.058,	0.07,	0.08,	0.084,	0.086,	0.1,	19,	71
1966-05-31,	3.38646341463415,	6.32664475700675,	1.86821588848916,	4.448,	0.011,	28.1,	0.0252857142857143,	19.19,	0.0392,	0.043,	0.06,	0.072,	0.19,	0.43,	0.964,	6.508,	10.95,	10,	82
1966-08-31,	0.0186973684210526,	0.00582184332055774,	0.311372338045312,	0.00825,	0.007,	0.031,	0.011,	0.0297142857142857,	0.011,	0.014,	0.016,	0.016,	0.017,	0.018,	0.0215,	0.025,	0.0275,	16,	76
1966-11-30,	0.0242727272727273,	0.00634070543824151,	0.261227564871373,	0.012,	0.017,	0.031,	0.017,	0.0305714285714286,	0.017,	0.017,	0.018,	0.018,	0.027,	0.03,	0.03,	0.0306,	0.031,	58,	33
1967-02-28,	0.0384457831325301,	0.00789141709127661,	0.205260927162632,	0.0105,	0.03,	0.066,	0.0302857142857143,	0.0528571428571429,	0.031,	0.0324,	0.034,	0.034,	0.035,	0.037,	0.042,	0.046,	0.0488,	7,	83
1967-05-31,	0.177282608695652,	0.156350151276259,	0.881926052569944,	0.2465,	0.036,	0.77,	0.0365714285714286,	0.5,	0.038,	0.0396,	0.047,	0.0494,	0.11,	0.23,	0.257,	0.354,	0.37,	0,	92
1967-08-31,	0.0334625,	0.020744951345547,	0.619946248652881,	0.01025,	0.015,	0.14,	0.0177142857142857,	0.214285714285714,	0.019,	0.0218,	0.026,	0.0276,	0.028,	0.029,	0.0323,	0.036,	0.0473,	12,	80
1967-11-30,	0.0416451612903226,	0.0167841619080955,	0.403027900194393,	0.01275,	0.029,	0.12,	0.03,	0.0685714285714286,	0.0311,	0.032,	0.033,	0.034,	0.0345,	0.035,	0.045,	0.045,	0.054,	29,	62
1968-02-29,	0.0645616438356164,	0.041802108632809,	0.647475902863369,	0.011,	0.029,	0.16,	0.0321428571428571,	0.151428571428571,	0.0364,	0.039,	0.0406,	0.043,	0.045,	0.0462,	0.0494,	0.116,	0.14,	18,	73
1968-05-31,	16.2845853658537,	43.9074981703472,	2.69626135292426,	6.72,	0.051,	261,	0.129428571428571,	134.628571428571,	0.181,	0.26,	0.39,	0.43,	0.475,	0.58,	1.603,	15.06,	43.18,	10,	82
1968-08-31,	0.185032608695652,	0.123073769630827,	0.665146378783769,	0.184,	0.072,	0.43,	0.0721428571428571,	0.411428571428571,	0.0761,	0.0792,	0.0833,	0.088,	0.105,	0.206,	0.23,	0.34,	0.38,	0,	92
1968-11-30,	0.113230769230769,	0.034859105911616,	0.307858951665087,	0.043,	0.057,	0.23,	0.0605714285714286,	0.188571428571429,	0.075,	0.088,	0.093,	0.1,	0.11,	0.11,	0.12,	0.14,	0.16,	0,	91
1969-02-28,	0.0710281690140845,	0.0418439180871643,	0.58911722867116,	0.0695,	0.005,	0.18,	0.00571428571428571,	0.123142857142857,	0.008,	0.014,	0.075,	0.078,	0.081,	0.084,	0.088,	0.095,	0.11,	19,	71
1969-05-31,	0.336222222222222,	1.08657779382538,	3.23172509729954,	0.13,	0.054,	9.13,	0.0578571428571429,	2.15,	0.0641,	0.0804,	0.0903,	0.094,	0.1,	0.116,	0.16,	0.24,	0.791000000000001,	20,	72
1969-08-31,	0.0650869565217391,	0.011236373602473,	0.172636334573734,	0.018,	0.035,	0.089,	0.0457142857142857,	0.0837142857142857,	0.0491,	0.0552,	0.0593,	0.062,	0.0655,	0.069,	0.072,	0.075,	0.078,	0,	92
1969-11-30,	0.0482051282051282,	0.0264586710184255,	0.54887668602053,	0.0455,	0.013,	0.12,	0.0131428571428571,	0.0958571428571429,	0.014,	0.015,	0.0241,	0.052,	0.055,	0.059,	0.0619,	0.065,	0.0816,	13,	78
1970-02-28,	0.0682,	0.00956021719465561,	0.140179137751549,	0.00899999999999999,	0.057,	0.096,	0.0588571428571429,	0.0938571428571429,	0.06,	0.061,	0.062,	0.0636,	0.066,	0.068,	0.07,	0.0722,	0.0872,	0,	90
1970-05-31,	26.4719393939394,	56.945901392024,	2.15117980381375,	11.463,	0.016,	246,	0.016,	169.571428571429,	0.016,	0.062,	0.063,	0.065,	0.109,	0.36,	4.95500000000002,	25.5,	118,	26,	66
1970-08-31,	0.0564782608695652,	0.00956649898412681,	0.169383738748974,	0.017,	0.044,	0.085,	0.044,	0.0711428571428571,	0.0448,	0.0476,	0.05,	0.052,	0.054,	0.0588,	0.062,	0.066,	0.067,	23,	69
1970-11-30,	0.0706923076923077,	0.00702741882803461,	0.0994085361963547,	0.00499999999999999,	0.061,	0.096,	0.0618571428571429,	0.0868571428571429,	0.063,	0.066,	0.067,	0.068,	0.07,	0.071,	0.072,	0.072,	0.0813,	13,	78
1971-02-28,	0.406028571428571,	1.28264989486416,	3.15901388503592,	0.12425,	0.056,	10.1,	0.0571428571428571,	2.68428571428571,	0.0647,	0.073,	0.09,	0.106,	0.14,	0.15,	0.16,	0.284,	0.565,	20,	70
1971-05-31,	10.8820277777778,	29.0995936910661,	2.67409661924319,	2.7305,	0.05,	152,	0.054,	90.4571428571429,	0.058,	0.0652,	0.0823,	0.0894,	0.16,	0.304,	2.006,	5.48,	29.5400000000001,	20,	72
1971-08-31,	0.0554133333333333,	0.0238288340741492,	0.430019864187004,	0.0485,	0.025,	0.099,	0.0262857142857143,	0.0872857142857143,	0.028,	0.0318,	0.0362,	0.0406,	0.046,	0.0644,	0.082,	0.082,	0.084,	17,	75
1971-11-30,	0.0633406593406593,	0.016272826552412,	0.256909648901716,	0.014,	0.046,	0.11,	0.0432857142857143,	0.101571428571429,	0.051,	0.051,	0.052,	0.056,	0.06,	0.06,	0.062,	0.07,	0.093,	0,	91
1972-02-29,	0.111381578947368,	0.0878258833685929,	0.788513542352399,	0.024,	0.073,	0.68,	0.0742857142857143,	0.33,	0.075,	0.076,	0.077,	0.08,	0.083,	0.088,	0.0925,	0.1,	0.19,	15,	76
1972-05-31,	0.268061728395062,	0.239916305494177,	0.895003949018023,	0.24,	0.067,	1.08,	0.0721428571428571,	0.828571428571429,	0.079,	0.11,	0.12,	0.14,	0.16,	0.2,	0.26,	0.38,	0.65,	11,	81
1972-08-31,	0.0507111111111111,	0.0371109010437587,	0.731810055639413,	0.03475,	0.012,	0.16,	0.015,	0.152857142857143,	0.0199,	0.026,	0.027,	0.028,	0.0405,	0.054,	0.06,	0.061,	0.0832000000000004,	2,	90
1972-11-30,	0.059,	0.0225395175357919,	0.382025720945625,	0.00775,	0,	0.12,	0.0174285714285714,	0.1,	0.0357,	0.0432,	0.057,	0.058,	0.059,	0.06,	0.061,	0.0732,	0.0829,	23,	68
1973-02-28,	0.0835322580645161,	0.0304080003180437,	0.364027036053043,	0.02625,	0.043,	0.2,	0.0512857142857143,	0.108571428571429,	0.0552,	0.066,	0.0683,	0.074,	0.0765,	0.0826,	0.0857,	0.1,	0.11,	28,	62
1973-05-31,	2.7471975308642,	8.09881081150152,	2.94802638707739,	0.1,	0.084,	36.7,	0.0858571428571429,	26.58,	0.09,	0.11,	0.12,	0.15,	0.17,	0.18,	0.2,	0.22,	6.4,	11,	81
1973-08-31,	0.101097826086957,	0.0564475950261228,	0.558346279153133,	0.07075,	0.046,	0.23,	0.0474285714285714,	0.22,	0.048,	0.0572,	0.0643,	0.071,	0.079,	0.087,	0.0964,	0.17,	0.2,	0,	92
1973-11-30,	0.145578125,	0.0524403832900101,	0.360221587481018,	0.08,	0.062,	0.23,	0.063,	0.227142857142857,	0.0722,	0.11,	0.11,	0.12,	0.135,	0.16,	0.16,	0.214,	0.22,	27,	64
1974-02-28,	0.188648648648649,	0.17953764305048,	0.951703838519734,	0.06,	0.11,	1.52,	0.11,	0.545714285714286,	0.11,	0.12,	0.13,	0.15,	0.16,	0.17,	0.171,	0.184,	0.249,	16,	74
1974-05-31,	11.2095862068966,	28.8210625720197,	2.57110851730529,	2.12,	0.001,	158,	0.0845714285714286,	95.5428571428571,	0.13,	0.15,	0.16,	0.22,	0.26,	0.3,	1.026,	4.728,	39.98,	5,	87
1974-08-31,	0.1375,	0.0288305697894781,	0.209676871196204,	0.05,	0.083,	0.19,	0.0921428571428571,	0.174285714285714,	0.0991,	0.11,	0.12,	0.12,	0.135,	0.15,	0.16,	0.17,	0.17,	34,	58
1974-11-30,	0.0745844155844156,	0.0115283981739267,	0.154568458887751,	0.014,	0.058,	0.1,	0.0582857142857143,	0.0988571428571429,	0.06,	0.064,	0.0678,	0.071,	0.076,	0.077,	0.078,	0.0818,	0.0908,	14,	77
1975-02-28,	0.093375,	0.0605571090916538,	0.648536643551848,	0.1105,	0.031,	0.25,	0.0314285714285714,	0.294285714285714,	0.0319,	0.032,	0.032,	0.033,	0.12,	0.12,	0.14,	0.15,	0.15,	50,	40
1975-05-31,	0.186428571428571,	0.426045071764248,	2.28529923551704,	0.102,	0.032,	3.06,	0.0327142857142857,	1.42142857142857,	0.035,	0.037,	0.039,	0.041,	0.045,	0.08,	0.13,	0.17,	0.28,	1,	91
1975-08-31,	0.0246521739130435,	0.0112400723303456,	0.455946496645411,	0.01,	0.011,	0.068,	0.0115714285714286,	0.0558571428571429,	0.0131,	0.0162,	0.0183,	0.02,	0.024,	0.026,	0.027,	0.029,	0.0338,	0,	92
1975-11-30,	0.0309310344827586,	0.00185030952010658,	0.0598204861572919,	0.003,	0.028,	0.033,	0.0271428571428571,	0.033,	0.028,	0.029,	0.029,	0.031,	0.032,	0.032,	0.032,	0.033,	0.033,	62,	29
1976-02-29,	0.145894117647059,	0.187494826819392,	1.28514315616872,	0.112,	0.034,	1.12,	0.0327142857142857,	0.634285714285714,	0.0564,	0.058,	0.058,	0.059,	0.061,	0.12,	0.16,	0.182,	0.22,	6,	85
1976-05-31,	0.239565217391304,	0.286230265574278,	1.19479058225198,	0.194,	0,	1.87,	0.0751428571428572,	0.994285714285714,	0.0772,	0.094,	0.1,	0.11,	0.12,	0.146,	0.267,	0.336,	0.45,	0,	92
1976-08-31,	0.202282608695652,	0.0763321725967478,	0.377354104185965,	0.0725,	0.11,	0.5,	0.0808571428571429,	0.411428571428571,	0.121,	0.15,	0.163,	0.17,	0.19,	0.2,	0.22,	0.23,	0.27,	0,	92
1976-11-30,	0.201411111111111,	0.164184117972041,	0.815169118854952,	0.16575,	0.001,	1.12,	0.0615714285714286,	0.615714285714286,	0.065,	0.088,	0.1,	0.126,	0.15,	0.24,	0.26,	0.27,	0.281,	1,	90
1977-02-28,	0.0962153846153846,	0.0599566229420519,	0.623150062557303,	0.096,	0.023,	0.24,	0.0245714285714286,	0.201428571428571,	0.0264,	0.0344,	0.051,	0.0526,	0.11,	0.12,	0.14,	0.15,	0.166,	25,	65
1977-05-31,	1.09706329113924,	2.07991322761417,	1.89589173606775,	0.497,	0,	8.15,	0.0411428571428571,	6.28428571428571,	0.062,	0.0666,	0.069,	0.0786,	0.092,	0.11,	0.4,	0.862000000000001,	4.858,	13,	79
1977-08-31,	0.0411014492753623,	0.00961638449781877,	0.233967041731134,	0.01,	0.031,	0.068,	0.0311428571428571,	0.0681428571428571,	0.0318,	0.033,	0.035,	0.0362,	0.039,	0.041,	0.043,	0.0464,	0.0564,	23,	69
1977-11-30,	0.0271641791044776,	0.0110269600950186,	0.405937541959476,	0.0155,	0.01,	0.05,	0.0125714285714286,	0.0478571428571429,	0.014,	0.019,	0.021,	0.022,	0.023,	0.025,	0.034,	0.0388,	0.0444,	24,	67
1978-02-28,	0.0264204545454545,	0.0108931293234626,	0.412299088371917,	0.017,	0.007,	0.046,	0.008,	0.0448571428571429,	0.011,	0.0164,	0.021,	0.0228,	0.026,	0.0292,	0.0349,	0.0376,	0.0396,	2,	88
1978-05-31,	6.19941304347826,	23.2634742244652,	3.75252851541134,	0.57175,	0.007,	192,	0.0125714285714286,	65.1285714285714,	0.024,	0.0254,	0.166,	0.228,	0.295,	0.382,	0.48,	0.7,	15.32,	0,	92
1978-08-31,	0.145326086956522,	0.100253865530216,	0.689854572085255,	0.18025,	0.005,	0.37,	0.0161428571428571,	0.32,	0.025,	0.0348,	0.0738,	0.104,	0.125,	0.156,	0.22,	0.258,	0.28,	0,	92
1978-11-30,	0.0406610169491525,	0.0210128123226427,	0.5167802947211,	0.0175,	0.01,	0.14,	0.013,	0.079,	0.0166,	0.023,	0.031,	0.038,	0.041,	0.044,	0.044,	0.0508,	0.0602,	32,	59
1979-02-28,	0.217683544303797,	0.460998124038226,	2.11774447863115,	0.1885,	0.01,	3,	0.0307142857142857,	1.28014285714286,	0.0308,	0.0346,	0.037,	0.0436,	0.087,	0.11,	0.22,	0.234,	0.282,	11,	79
1979-05-31,	6.97861111111111,	11.4667877184079,	1.64313321602788,	7.8675,	0.1,	46.5,	0.102857142857143,	35.3428571428571,	0.11,	0.182,	0.263,	0.328,	0.405,	0.668,	7.428,	11.54,	27.63,	20,	72
1979-08-31,	0.0847391304347826,	0.149792080775226,	1.76768489370456,	0.0275,	0.001,	0.63,	0.00514285714285714,	0.551428571428571,	0.011,	0.018,	0.023,	0.023,	0.0275,	0.029,	0.04,	0.0907999999999999,	0.237,	0,	92
1979-11-30,	0.249961038961039,	0.586064179204185,	2.34462211247063,	0.341,	0.015,	4.9,	0.0217142857142857,	1.22142857142857,	0.023,	0.029,	0.031,	0.031,	0.034,	0.134,	0.37,	0.37,	0.454,	14,	77
1980-02-29,	0.119867924528302,	0.0439072614179587,	0.366297002227579,	0.048,	0.071,	0.27,	0.0724285714285714,	0.232857142857143,	0.0882,	0.0914,	0.094,	0.0968,	0.1,	0.102,	0.13,	0.146,	0.188,	38,	53
1980-05-31,	0.405228260869565,	0.799598430852086,	1.97320500089568,	0.1525,	0.034,	5.4,	0.0401428571428571,	1.91714285714286,	0.0541,	0.0634,	0.0963,	0.1,	0.11,	0.126,	0.187,	0.448,	1.321,	0,	92
1980-08-31,	0.0527391304347826,	0.0460119118750828,	0.872443506287637,	0.06175,	0,	0.17,	0,	0.158571428571429,	0,	0.018,	0.021,	0.024,	0.042,	0.051,	0.0682,	0.099,	0.119,	0,	92
1980-11-30,	0.0824675324675325,	0.0151965927756541,	0.18427364468116,	0.012,	0.057,	0.12,	0.0382857142857143,	0.118571428571429,	0.0696,	0.074,	0.076,	0.077,	0.078,	0.08,	0.085,	0.09,	0.11,	14,	77
1981-02-28,	0.2119625,	0.259831856231406,	1.22583879804874,	0.05,	0.089,	1.15,	0.0915714285714286,	1.00857142857143,	0.0996,	0.1,	0.11,	0.11,	0.12,	0.13,	0.15,	0.172,	0.311000000000002,	10,	80
1981-05-31,	4.60152873563218,	13.7943994330013,	2.99778621964993,	0.519,	0.014,	80.2,	0.0444285714285714,	47.6,	0.0466,	0.09,	0.0948,	0.13,	0.16,	0.516,	0.54,	0.696,	5.91600000000002,	5,	87
1981-08-31,	0.0500875,	0.0304049436977907,	0.607036559975856,	0.0415,	0.022,	0.13,	0.022,	0.12,	0.022,	0.025,	0.0267,	0.03,	0.0375,	0.0488,	0.0616,	0.0734,	0.1,	12,	80
1981-11-30,	0.0596363636363636,	0.0251913253087923,	0.422415515848651,	0.035,	0.025,	0.12,	0.0302857142857143,	0.0961428571428571,	0.036,	0.0412,	0.045,	0.0464,	0.049,	0.0518,	0.065,	0.089,	0.0968,	14,	77
1982-02-28,	0.188544303797468,	0.0806831087505316,	0.427926525095133,	0.065,	0.086,	0.53,	0.111,	0.625714285714286,	0.12,	0.14,	0.15,	0.16,	0.17,	0.18,	0.19,	0.22,	0.3,	11,	79
1982-05-31,	1.18953260869565,	2.29008514862133,	1.92519745308408,	0.3625,	0.089,	10.7,	0.0892857142857143,	7.03857142857143,	0.0928,	0.12,	0.196,	0.22,	0.24,	0.322,	0.4,	0.785999999999999,	4.179,	0,	92
1982-08-31,	0.093304347826087,	0.0339598143675387,	0.363968187536528,	0.02925,	0.033,	0.19,	0.0338571428571429,	0.158571428571429,	0.0383,	0.066,	0.0836,	0.09,	0.093,	0.1,	0.11,	0.12,	0.13,	0,	92
1982-11-30,	0.106824175824176,	0.025071273249852,	0.234696622336851,	0.03,	0.08,	0.17,	0.0812857142857143,	0.167142857142857,	0.085,	0.088,	0.09,	0.09,	0.1,	0.1,	0.11,	0.12,	0.15,	0,	91
1983-02-28,	0.387887323943662,	0.458007846136653,	1.18077549294489,	0.11,	0.11,	1.86,	0.114285714285714,	1.32571428571429,	0.12,	0.13,	0.15,	0.16,	0.17,	0.22,	0.24,	0.72,	1.16,	19,	71
1983-05-31,	3.3208625,	12.7708469716483,	3.84564159812348,	0.429,	0,	94.7,	0.0142857142857143,	31.9157142857143,	0.074,	0.0892,	0.1,	0.116,	0.15,	0.194,	0.223,	1.344,	4.161,	12,	80
1983-08-31,	0.338347826086957,	0.724685720965334,	2.14183649218744,	0.0395,	0.047,	3.05,	0.0482857142857143,	2.62142857142857,	0.0501,	0.0564,	0.064,	0.067,	0.075,	0.0866,	0.0927,	0.118,	1.188,	0,	92
1983-11-30,	0.177830769230769,	0.0550938316734418,	0.309810455815703,	0.1,	0.087,	0.25,	0.0888571428571429,	0.248571428571429,	0.1,	0.11,	0.12,	0.18,	0.19,	0.2,	0.22,	0.24,	0.24,	26,	65
1984-02-29,	0.8094,	2.28580125727394,	2.82406876361989,	0.0475,	0.13,	11,	0.137142857142857,	4.68571428571429,	0.14,	0.158,	0.16,	0.17,	0.17,	0.18,	0.19,	0.254,	0.647,	41,	50
1984-05-31,	0.694065217391304,	0.999909927859415,	1.44065702012507,	0.595,	0.079,	4.7,	0.0962857142857143,	3.66,	0.131,	0.17,	0.19,	0.26,	0.28,	0.32,	0.519,	1.066,	1.5,	0,	92
1984-08-31,	0.0888586956521739,	0.0410404735962593,	0.461862210502245,	0.073,	0.032,	0.17,	0.0337142857142857,	0.161428571428571,	0.0371,	0.045,	0.0622,	0.0708,	0.087,	0.1,	0.117,	0.13,	0.15,	0,	92
1984-11-30,	0.239376623376623,	0.162270732108334,	0.677888800582776,	0.13,	0.093,	0.7,	0.0974285714285714,	0.588571428571429,	0.1,	0.12,	0.13,	0.18,	0.19,	0.206,	0.232,	0.314,	0.568,	14,	77
1985-02-28,	0.596292134831461,	0.864398611256393,	1.44962269458864,	0.17,	0.14,	3.2,	0.137142857142857,	2.82142857142857,	0.17,	0.18,	0.184,	0.19,	0.2,	0.21,	0.316,	0.564000000000001,	2.288,	1,	89
1985-05-31,	0.701380434782609,	0.818271118217977,	1.16665803270033,	0.77,	0.02,	4.79,	0.0352857142857143,	2.66,	0.13,	0.17,	0.19,	0.2,	0.245,	0.768,	0.937,	0.998,	1.494,	0,	92
1985-08-31,	0.407907894736842,	1.26999814359582,	3.11344340225421,	0.08,	0.072,	8.2,	0.0738571428571429,	3.16142857142857,	0.079,	0.1,	0.105,	0.11,	0.13,	0.14,	0.16,	0.18,	0.225,	16,	76
1985-11-30,	0.618791208791209,	1.06042322281126,	1.71370117698143,	0.085,	0.16,	4.88,	0.165714285714286,	4.14571428571429,	0.2,	0.25,	0.28,	0.3,	0.31,	0.32,	0.34,	0.36,	0.75,	0,	91
1986-02-28,	0.233636363636364,	0.0616350640372923,	0.263807667085687,	0.1175,	0.13,	0.32,	0.132857142857143,	1.48,	0.14,	0.16,	0.185,	0.24,	0.26,	0.28,	0.28,	0.29,	0.29,	24,	66
1986-05-31,	10.7763043478261,	19.5745180125294,	1.81644071851759,	11.7625,	0.16,	153,	0.332857142857143,	58.4142857142857,	0.7,	1.052,	1.606,	2.54,	3.45,	4.8,	11.02,	17.72,	26.09,	0,	92
1986-08-31,	0.545652173913043,	0.624433465160865,	1.1443800556733,	0.66,	0.1,	3,	0.12,	3.07285714285714,	0.12,	0.13,	0.14,	0.16,	0.2,	0.356,	0.747,	0.916,	1.25,	0,	92
1986-11-30,	1.38513157894737,	1.17818786665065,	0.850596350958956,	1.5175,	0.19,	5.45,	0.207142857142857,	3.96428571428571,	0.225,	0.35,	0.55,	0.75,	1.045,	1.5,	1.7,	2.25,	2.91,	15,	76
1987-02-28,	0.935454545454545,	0.986446897971443,	1.05451077528531,	0.5,	0.12,	3.8,	0.121428571428571,	2.84428571428571,	0.13,	0.18,	0.495000000000001,	0.68,	0.7,	0.71,	0.725,	0.82,	2.785,	24,	66
1987-05-31,	2.60630434782609,	1.60716576508598,	0.616645468295564,	2.9,	0.2,	5.16,	0.264285714285714,	5.01142857142857,	0.3,	0.738,	1.451,	2,	2.425,	3.56,	3.994,	4.12,	4.595,	0,	92
1987-08-31,	0.579673913043478,	0.320889735219335,	0.553569391340312,	0.6475,	0.17,	1.35,	0.17,	1.29714285714286,	0.18,	0.21,	0.283,	0.386,	0.615,	0.682,	0.82,	0.92,	0.93,	0,	92
1987-11-30,	0.842527472527473,	0.309449667085128,	0.367287331482283,	0.255,	0.21,	1.67,	0.215714285714286,	1.37142857142857,	0.44,	0.56,	0.78,	0.85,	0.87,	0.9,	0.92,	0.95,	1.25,	0,	91
1988-02-29,	0.366521739130435,	0.0784561714844012,	0.214055983883894,	0.04,	0.3,	0.65,	0.301428571428571,	0.694285714285714,	0.31,	0.32,	0.324,	0.34,	0.34,	0.35,	0.36,	0.374,	0.474,	22,	69
1988-05-31,	0.964344444444444,	1.31059406001146,	1.35905180722692,	0.77,	0.04,	6.43,	0.0987142857142857,	5.03428571428571,	0.119,	0.188,	0.27,	0.5,	0.64,	0.804,	0.956,	1.064,	1.793,	2,	90
1988-08-31,	0.638695652173913,	0.609007871601999,	0.95351811074513,	0.6025,	0.12,	2.93,	0.125714285714286,	2.00428571428571,	0.14,	0.172,	0.23,	0.35,	0.475,	0.588,	0.764,	0.864,	1.403,	0,	92
1988-11-30,	1.2585,	1.0898264871767,	0.865972576223041,	0.765,	0.34,	5.73,	0.395714285714286,	4.32857142857143,	0.43,	0.502,	0.684,	0.71,	1.12,	1.208,	1.293,	1.504,	1.659,	11,	80
1989-02-28,	0.397741935483871,	0.044846527172917,	0.112752825819986,	0.0575,	0.31,	0.5,	0.315714285714286,	0.481428571428571,	0.35,	0.36,	0.37,	0.384,	0.395,	0.41,	0.417,	0.43,	0.458,	28,	62
1989-05-31,	0.948913043478261,	0.461265475089256,	0.48609878245374,	0.61,	0.32,	2.53,	0.431428571428571,	1.83142857142857,	0.424,	0.55,	0.643,	0.73,	0.84,	0.976,	1.077,	1.336,	1.549,	0,	92
1989-08-31,	0.638369565217391,	0.44710123045272,	0.700379928514392,	0.6375,	0.12,	1.68,	0.128571428571429,	1.45857142857143,	0.14,	0.192,	0.29,	0.388,	0.58,	0.718,	0.827,	1.092,	1.298,	0,	92
1989-11-30,	0.655875,	0.4242870229551,	0.646902264844825,	0.745,	0.21,	1.6,	0.241428571428571,	1.56285714285714,	0.27,	0.3,	0.33,	0.376,	0.42,	0.59,	0.931,	1.092,	1.282,	11,	80
1990-02-28,	1.22153846153846,	1.21810271560908,	0.997187361644716,	0.7625,	0.31,	5.7,	0.311428571428571,	4.44285714285714,	0.32,	0.41,	0.522,	0.664,	0.835,	0.984,	1.148,	1.572,	2.85,	12,	78
1990-05-31,	3.5879347826087,	6.25436612999332,	1.74316605761879,	2.7875,	0.3,	41.8,	0.348571428571429,	21.6814285714286,	0.44,	0.6,	0.828,	1.14,	2.09,	2.596,	3.194,	3.91,	5.764,	0,	92
1990-08-31,	1.1254347826087,	0.638515470986384,	0.567350041826804,	0.6125,	0.28,	3.12,	0.284285714285714,	2.33142857142857,	0.332,	0.546,	0.851,	0.98,	1.05,	1.148,	1.247,	1.468,	2.056,	0,	92
1990-11-30,	1.28252747252747,	0.442441693350267,	0.34497638672671,	0.545,	0.68,	2.19,	0.704285714285714,	2.16714285714286,	0.79,	0.97,	0.98,	1.07,	1.18,	1.25,	1.4,	1.7,	2.07,	0,	91
1991-02-28,	NA,	NA,	NA,	NA,	NA,	NA,	NA,	NA,	NA,	NA,	NA,	NA,	NA,	NA,	NA,	NA,	NA,	90,	0
1991-05-31,	NA,	NA,	NA,	NA,	NA,	NA,	NA,	NA,	NA,	NA,	NA,	NA,	NA,	NA,	NA,	NA,	NA,	92,	0
1991-08-31,	NA,	NA,	NA,	NA,	NA,	NA,	NA,	NA,	NA,	NA,	NA,	NA,	NA,	NA,	NA,	NA,	NA,	92,	0
1991-11-30,	NA,	NA,	NA,	NA,	NA,	NA,	NA,	NA,	NA,	NA,	NA,	NA,	NA,	NA,	NA,	NA,	NA,	91,	0
1992-02-29,	0.746136363636364,	0.331864921344225,	0.44477784158227,	0.245,	0.49,	1.66,	0.524285714285714,	1.74142857142857,	0.527,	0.544,	0.57,	0.57,	0.585,	0.612,	0.699,	0.856,	1.446,	3,	88
1992-05-31,	1.015375,	0.564249122980985,	0.555705156204343,	0.4475,	0.21,	3.88,	0.304285714285714,	2.21714285714286,	0.408,	0.672,	0.9,	0.91,	0.955,	0.964,	1.065,	1.318,	1.533,	12,	80
1992-08-31,	0.501318681318681,	0.449978292788068,	0.897589317047658,	0.685,	0.15,	1.72,	0.151428571428571,	1.51714285714286,	0.16,	0.17,	0.18,	0.2,	0.21,	0.28,	0.81,	0.92,	1.14,	1,	91
1992-11-30,	1.39033333333333,	0.395646107900266,	0.284569245672692,	0.585,	0.63,	2.15,	0.831428571428571,	2.12,	0.97,	1.096,	1.167,	1.26,	1.325,	1.39,	1.493,	1.804,	2.002,	1,	90
